1.000000000000000000e+00,7.582644820213317871e-01,1.115702465176582336e-01,0.000000000000000000e+00,8.057851344347000122e-02,7.851240038871765137e-02,6.611569970846176147e-02,4.958677664399147034e-02,4.752065986394882202e-02,3.512396663427352905e-02,3.099173493683338165e-02,2.892562001943588257e-02,3.512396663427352905e-02.1,2.685950323939323425e-02,3.925620019435882568e-02,3.512396663427352905e-02.2,4.338843002915382385e-02,4.752065986394882202e-02.1,5.371900647878646851e-02,5.371900647878646851e-02.1,7.024793326854705811e-02,7.231404632329940796e-02,8.471074700355529785e-02,9.710744023323059082e-02,1.219008266925811768e-01,1.322313994169235229e-01,1.694214940071105957e-01,1.962809860706329346e-01,2.148760259151458740e-01,2.355371862649917603e-01,2.541322410106658936e-01,2.644627988338470459e-01,2.851239740848541260e-01,2.727272808551788330e-01,2.665289342403411865e-01,2.396694272756576538e-01,2.148760259151458740e-01.1,1.735537201166152954e-01,1.570248007774353027e-01,1.239669397473335266e-01,1.219008266925811768e-01.1,1.074380129575729370e-01,1.053718999028205872e-01,9.710744023323059082e-02.1,1.053718999028205872e-01.1,9.917355328798294067e-02,1.053718999028205872e-01.2,9.917355328798294067e-02.1,1.074380129575729370e-01.1,1.074380129575729370e-01.2,1.157024800777435303e-01,1.115702465176582336e-01.1,1.219008266925811768e-01.2,1.115702465176582336e-01.2,1.198347136378288269e-01,1.115702465176582336e-01.3,1.136363670229911804e-01,1.115702465176582336e-01.4,1.219008266925811768e-01.3,1.053718999028205872e-01.3,1.074380129575729370e-01.3,1.012396663427352905e-01,1.012396663427352905e-01.1,8.677686005830764771e-02,9.297520667314529419e-02,8.471074700355529785e-02.1,8.264462649822235107e-02,7.851240038871765137e-02.1,7.851240038871765137e-02.2,7.024793326854705811e-02.1,7.644627988338470459e-02,6.818182021379470825e-02,7.851240038871765137e-02.3,7.024793326854705811e-02.2,6.818182021379470825e-02.1,6.818182021379470825e-02.2,7.438016682863235474e-02,7.231404632329940796e-02.1,9.090909361839294434e-02,1.012396663427352905e-01.2,1.074380129575729370e-01.4,1.053718999028205872e-01.4,1.219008266925811768e-01.4,1.157024800777435303e-01.1,1.095041334629058838e-01,9.710744023323059082e-02.2,1.033057868480682373e-01,9.710744023323059082e-02.3,8.677686005830764771e-02.1,7.231404632329940796e-02.2,7.024793326854705811e-02.3,5.371900647878646851e-02.2,5.785124003887176514e-02,4.958677664399147034e-02.1,5.785124003887176514e-02.1,5.165289342403411865e-02,5.578512325882911682e-02,5.371900647878646851e-02.3,5.371900647878646851e-02.4,0.000000000000000000e+00.1,1.239669416099786758e-02,1.880165338516235352e-01,6.818181872367858887e-01,9.752066135406494141e-01,6.157024502754211426e-01,4.132231324911117554e-02,1.239669416099786758e-02.1,8.677686005830764771e-02.2,6.611569970846176147e-02.1,6.611569970846176147e-02.2,5.165289342403411865e-02.1,3.925620019435882568e-02.1,4.338843002915382385e-02.1,3.305784985423088074e-02,4.132231324911117554e-02.1,3.512396663427352905e-02.3,4.545454680919647217e-02,4.132231324911117554e-02.2,4.545454680919647217e-02.1,4.338843002915382385e-02.2,4.958677664399147034e-02.2,4.752065986394882202e-02.2,6.404958665370941162e-02,6.818182021379470825e-02.3,0.000000000000000000e+00.2,0.000000000000000000e+00.3,0.000000000000000000e+00.4,0.000000000000000000e+00.5,0.000000000000000000e+00.6,0.000000000000000000e+00.7,0.000000000000000000e+00.8,0.000000000000000000e+00.9,0.000000000000000000e+00.10,0.000000000000000000e+00.11,0.000000000000000000e+00.12,0.000000000000000000e+00.13,0.000000000000000000e+00.14,0.000000000000000000e+00.15,0.000000000000000000e+00.16,0.000000000000000000e+00.17,0.000000000000000000e+00.18,0.000000000000000000e+00.19,0.000000000000000000e+00.20,0.000000000000000000e+00.21,0.000000000000000000e+00.22,0.000000000000000000e+00.23,0.000000000000000000e+00.24,0.000000000000000000e+00.25,0.000000000000000000e+00.26,0.000000000000000000e+00.27,0.000000000000000000e+00.28,0.000000000000000000e+00.29,0.000000000000000000e+00.30,0.000000000000000000e+00.31,0.000000000000000000e+00.32,0.000000000000000000e+00.33,0.000000000000000000e+00.34,0.000000000000000000e+00.35,0.000000000000000000e+00.36,0.000000000000000000e+00.37,0.000000000000000000e+00.38,0.000000000000000000e+00.39,0.000000000000000000e+00.40,0.000000000000000000e+00.41,0.000000000000000000e+00.42,0.000000000000000000e+00.43,0.000000000000000000e+00.44,0.000000000000000000e+00.45,0.000000000000000000e+00.46,0.000000000000000000e+00.47,0.000000000000000000e+00.48,0.000000000000000000e+00.49,0.000000000000000000e+00.50,0.000000000000000000e+00.51,0.000000000000000000e+00.52,0.000000000000000000e+00.53,0.000000000000000000e+00.54,0.000000000000000000e+00.55,0.000000000000000000e+00.56,0.000000000000000000e+00.57,0.000000000000000000e+00.58,0.000000000000000000e+00.59,0.000000000000000000e+00.60,0.000000000000000000e+00.61,0.000000000000000000e+00.62,0.000000000000000000e+00.63,0.000000000000000000e+00.64,0.000000000000000000e+00.65
0.9782608747482301,0.7652173638343811,0.44782608747482294,0.1826086938381195,0.008695651777088642,0.01304347813129425,0.08695652335882186,0.14782609045505524,0.12608695030212402,0.16521738469600675,0.15217390656471252,0.16521738469600675,0.15217390656471252,0.19565217196941373,0.1739130467176437,0.2130434811115265,0.186956524848938,0.23913043737411496,0.22608695924282077,0.27391305565834045,0.291304349899292,0.33043476939201355,0.34347826242446894,0.3913043439388275,0.4000000059604645,0.46086955070495605,0.46086955070495605,0.52173912525177,0.5260869860649109,0.560869574546814,0.5173913240432739,0.48260870575904846,0.373913049697876,0.3695652186870575,0.2956521809101105,0.2869565188884735,0.2565217316150665,0.27391305565834045,0.230434775352478,0.25217390060424805,0.22608695924282077,0.25217390060424805,0.22173912823200223,0.24782608449459076,0.230434775352478,0.25217390060424805,0.22608695924282077,0.24782608449459076,0.230434775352478,0.25217390060424805,0.22173912823200223,0.24782608449459076,0.21739129722118375,0.24347825348377228,0.21739129722118375,0.23913043737411496,0.2130434811115265,0.23913043737411496,0.20434781908988953,0.230434775352478,0.19130434095859528,0.230434775352478,0.20434781908988953,0.22608695924282077,0.20000000298023224,0.23478260636329648,0.208695650100708,0.2565217316150665,0.24347825348377228,0.27391305565834045,0.260869562625885,0.3000000119209289,0.2782608568668365,0.2956521809101105,0.2565217316150665,0.2652173936367035,0.23913043737411496,0.260869562625885,0.21739129722118375,0.24347825348377228,0.21739129722118375,0.21739129722118375,0.208695650100708,0.2130434811115265,0.1826086938381195,0.19565217196941373,0.186956524848938,0.2130434811115265,0.17826086282730103,0.2130434811115265,0.1826086938381195,0.208695650100708,0.1826086938381195,0.2130434811115265,0.2130434811115265,0.27391305565834045,0.32608696818351746,0.4956521689891815,0.582608699798584,0.49130433797836304,0.37826088070869446,0.6217391490936279,0.9260869622230528,1.0,0.7130434513092041,0.44347825646400446,0.12173912674188613,0.021739130839705467,0.0,0.10000000149011612,0.1304347813129425,0.16956521570682523,0.15217390656471252,0.186956524848938,0.16521738469600675,0.1826086938381195,0.17826086282730103,0.208695650100708,0.19130434095859528,0.22608695924282077,0.22173912823200223,0.2652173936367035,0.24347825348377228,0.30434781312942505,0.0,0.0,0.0,0.0,0.0,0.0,0.0,0.0,0.0,0.0,0.0,0.0,0.0,0.0,0.0,0.0,0.0,0.0,0.0,0.0,0.0,0.0,0.0,0.0,0.0,0.0,0.0,0.0,0.0,0.0,0.0,0.0,0.0,0.0,0.0,0.0,0.0,0.0,0.0,0.0,0.0,0.0,0.0,0.0,0.0,0.0,0.0,0.0,0.0,0.0,0.0,0.0,0.0,0.0,0.0,0.0,0.0,0.0,0.0,0.0,0.0,0.0,0.0,0.0
1.0,0.6692307591438292,0.05384615436196327,0.06923077255487442,0.1923076957464218,0.16538462042808533,0.1230769231915474,0.1230769231915474,0.13461539149284363,0.1269230842590332,0.10769230872392654,0.11153846234083176,0.1307692378759384,0.1269230842590332,0.1230769231915474,0.1269230842590332,0.14230769872665405,0.14230769872665405,0.1230769231915474,0.1307692378759384,0.13846154510974884,0.14615385234355927,0.14230769872665405,0.14615385234355927,0.16153846681118011,0.16153846681118011,0.14615385234355927,0.15000000596046448,0.1576923131942749,0.1576923131942749,0.1538461595773697,0.16538462042808533,0.18461538851261136,0.20000000298023224,0.1923076957464218,0.21153846383094788,0.2230769246816635,0.20769231021404264,0.1923076957464218,0.17307692766189575,0.17307692766189575,0.1576923131942749,0.1307692378759384,0.13846154510974884,0.13461539149284363,0.11923076957464218,0.10769230872392654,0.10769230872392654,0.11923076957464218,0.11153846234083176,0.0961538478732109,0.09230769425630568,0.11153846234083176,0.10000000149011612,0.08461538702249528,0.08461538702249528,0.09230769425630568,0.0961538478732109,0.08076923340559004,0.08461538702249528,0.09230769425630568,0.08461538702249528,0.07307692617177963,0.08076923340559004,0.0961538478732109,0.0961538478732109,0.10769230872392654,0.11153846234083176,0.13461539149284363,0.1576923131942749,0.14230769872665405,0.11153846234083176,0.11923076957464218,0.10384615510702132,0.08076923340559004,0.06538461893796921,0.0615384615957737,0.07307692617177963,0.0615384615957737,0.0615384615957737,0.08076923340559004,0.06923077255487442,0.023076923564076424,0.0961538478732109,0.3730769157409668,0.800000011920929,0.857692301273346,0.2769230902194977,0.0,0.1230769231915474,0.13461539149284363,0.10384615510702132,0.0961538478732109,0.08846154063940048,0.07692307978868483,0.08461538702249528,0.0961538478732109,0.09230769425630568,0.08076923340559004,0.08846154063940048,0.09230769425630568,0.10000000149011612,0.08076923340559004,0.0,0.0,0.0,0.0,0.0,0.0,0.0,0.0,0.0,0.0,0.0,0.0,0.0,0.0,0.0,0.0,0.0,0.0,0.0,0.0,0.0,0.0,0.0,0.0,0.0,0.0,0.0,0.0,0.0,0.0,0.0,0.0,0.0,0.0,0.0,0.0,0.0,0.0,0.0,0.0,0.0,0.0,0.0,0.0,0.0,0.0,0.0,0.0,0.0,0.0,0.0,0.0,0.0,0.0,0.0,0.0,0.0,0.0,0.0,0.0,0.0,0.0,0.0,0.0,0.0,0.0,0.0,0.0,0.0,0.0,0.0,0.0,0.0,0.0,0.0,0.0,0.0,0.0,0.0,0.0,0.0,0.0,0.0,0.0,0.0
1.0,0.8805309534072877,0.43362832069396967,0.2168141603469849,0.10176990926265717,0.08849557489156723,0.048672568053007126,0.0398230105638504,0.022123893722891808,0.008849557489156723,0.013274336233735085,0.022123893722891808,0.008849557489156723,0.030973451212048527,0.008849557489156723,0.030973451212048527,0.013274336233735085,0.035398229956626885,0.030973451212048527,0.048672568053007126,0.035398229956626885,0.06637167930603027,0.05752212554216385,0.08407079428434373,0.07079645991325377,0.09292035549879074,0.09292035549879074,0.12389380484819412,0.11504425108432768,0.14159291982650757,0.13274335861206055,0.14159291982650757,0.13274335861206055,0.13716813921928403,0.10619468986988068,0.10619468986988068,0.0796460211277008,0.07079645991325377,0.048672568053007126,0.05752212554216385,0.030973451212048527,0.044247787445783615,0.030973451212048527,0.044247787445783615,0.02654867246747017,0.048672568053007126,0.02654867246747017,0.0398230105638504,0.02654867246747017,0.048672568053007126,0.02654867246747017,0.0398230105638504,0.030973451212048527,0.030973451212048527,0.017699114978313446,0.02654867246747017,0.017699114978313446,0.030973451212048527,0.017699114978313446,0.017699114978313446,0.008849557489156723,0.030973451212048527,0.017699114978313446,0.02654867246747017,0.013274336233735085,0.017699114978313446,0.013274336233735085,0.017699114978313446,0.0044247787445783615,0.017699114978313446,0.0,0.017699114978313446,0.0044247787445783615,0.017699114978313446,0.008849557489156723,0.013274336233735085,0.008849557489156723,0.017699114978313446,0.0044247787445783615,0.022123893722891808,0.0044247787445783615,0.02654867246747017,0.008849557489156723,0.022123893722891808,0.013274336233735085,0.02654867246747017,0.0,0.02654867246747017,0.0044247787445783615,0.02654867246747017,0.022123893722891808,0.0398230105638504,0.017699114978313446,0.02654867246747017,0.02654867246747017,0.02654867246747017,0.022123893722891808,0.02654867246747017,0.017699114978313446,0.035398229956626885,0.017699114978313446,0.0398230105638504,0.030973451212048527,0.0398230105638504,0.017699114978313446,0.0398230105638504,0.02654867246747017,0.030973451212048527,0.044247787445783615,0.07079645991325377,0.08407079428434373,0.11061947047710417,0.1194690242409706,0.12389380484819412,0.14601770043373108,0.12831857800483704,0.10176990926265717,0.09292035549879074,0.061946902424097054,0.061946902424097054,0.02654867246747017,0.0398230105638504,0.008849557489156723,0.030973451212048527,0.022123893722891808,0.030973451212048527,0.02654867246747017,0.030973451212048527,0.017699114978313446,0.044247787445783615,0.0398230105638504,0.09292035549879074,0.11061947047710417,0.3362831771373749,0.6194690465927124,0.9026548862457277,0.9247787594795229,0.45132744312286377,0.07079645991325377,0.030973451212048527,0.0,0.0,0.0,0.0,0.0,0.0,0.0,0.0,0.0,0.0,0.0,0.0,0.0,0.0,0.0,0.0,0.0,0.0,0.0,0.0,0.0,0.0,0.0,0.0,0.0,0.0,0.0,0.0,0.0,0.0,0.0,0.0,0.0,0.0,0.0,0.0,0.0,0.0,0.0,0.0,0.0,0.0,0.0,0.0,0.0,0.0,0.0,1.0
0.9603174328804016,0.9312169551849363,0.817460298538208,0.6878306865692139,0.5132275223731995,0.4365079402923584,0.394179880619049,0.4021163880825042,0.460317462682724,0.42592594027519226,0.21957671642303464,0.1534391492605209,0.11640211939811707,0.08994708955287933,0.05555555596947669,0.052910052239894874,0.02116402052342892,0.026455026119947437,0.005291005130857229,0.018518518656492237,0.010582010261714458,0.01587301678955555,0.0,0.013227513059973717,0.010582010261714458,0.018518518656492237,0.018518518656492237,0.042328041046857834,0.044973544776439674,0.06878306716680527,0.06613756716251373,0.09788359701633453,0.1111111119389534,0.14814814925193787,0.1534391492605209,0.190476194024086,0.1931216865777969,0.21164020895957944,0.1931216865777969,0.230158731341362,0.21164020895957944,0.22486773133277893,0.21693122386932373,0.22751322388648984,0.22486773133277893,0.2380952388048172,0.22486773133277893,0.2460317462682724,0.23280423879623413,0.2380952388048172,0.23280423879623413,0.25661376118659973,0.24074074625968933,0.2513227462768554,0.24074074625968933,0.2513227462768554,0.24074074625968933,0.2460317462682724,0.23544973134994504,0.24338623881340024,0.23544973134994504,0.2380952388048172,0.22486773133277893,0.2380952388048172,0.230158731341362,0.2460317462682724,0.23544973134994504,0.2513227462768554,0.24074074625968933,0.2539682686328888,0.24074074625968933,0.2539682686328888,0.24074074625968933,0.2539682686328888,0.2380952388048172,0.24338623881340024,0.22751322388648984,0.24074074625968933,0.22751322388648984,0.23544973134994504,0.230158731341362,0.230158731341362,0.2222222238779068,0.24338623881340024,0.24338623881340024,0.261904776096344,0.24074074625968933,0.25661376118659973,0.24338623881340024,0.2513227462768554,0.2380952388048172,0.25661376118659973,0.24338623881340024,0.24338623881340024,0.23544973134994504,0.2592592537403106,0.2539682686328888,0.27248677611351013,0.261904776096344,0.2936508059501648,0.2857142984867096,0.3095238208770752,0.380952388048172,0.5608465671539307,0.7962962985038757,1.0,0.8439153432846069,0.4708994626998901,0.2539682686328888,0.29629629850387573,0.261904776096344,0.261904776096344,0.2380952388048172,0.2380952388048172,0.230158731341362,0.2513227462768554,0.23280423879623413,0.2380952388048172,0.230158731341362,0.2380952388048172,0.2222222238779068,0.23544973134994504,0.2222222238779068,0.0,0.0,0.0,0.0,0.0,0.0,0.0,0.0,0.0,0.0,0.0,0.0,0.0,0.0,0.0,0.0,0.0,0.0,0.0,0.0,0.0,0.0,0.0,0.0,0.0,0.0,0.0,0.0,0.0,0.0,0.0,0.0,0.0,0.0,0.0,0.0,0.0,0.0,0.0,0.0,0.0,0.0,0.0,0.0,0.0,0.0,0.0,0.0,0.0,0.0,0.0,0.0,0.0,0.0,0.0,0.0,0.0,0.0,0.0,0.0,0.0,0.0,0.0,0.0,2.0
0.9970760345458984,0.8333333134651184,0.3830409348011017,0.1315789520740509,0.1111111119389534,0.10233917832374571,0.06432748585939407,0.04970760270953178,0.035087719559669495,0.023391813039779663,0.011695906519889832,0.017543859779834747,0.014619883149862288,0.014619883149862288,0.017543859779834747,0.020467836409807205,0.023391813039779663,0.03801169618964195,0.05263157933950424,0.06725145876407623,0.08479531854391098,0.0964912250638008,0.10526315867900848,0.12280701845884325,0.11988303810358047,0.1432748585939407,0.14619882404804227,0.1432748585939407,0.13450291752815247,0.14035087823867795,0.12865497171878815,0.1111111119389534,0.0964912250638008,0.09356725215911864,0.07894736528396606,0.07894736528396606,0.06725145876407623,0.061403509229421616,0.05555555596947669,0.061403509229421616,0.061403509229421616,0.04970760270953178,0.061403509229421616,0.04970760270953178,0.05263157933950424,0.046783626079559326,0.05263157933950424,0.046783626079559326,0.05847953259944916,0.061403509229421616,0.07017543911933899,0.06725145876407623,0.06432748585939407,0.07017543911933899,0.08479531854391098,0.08479531854391098,0.09064327180385587,0.08771929889917372,0.09941520541906355,0.09356725215911864,0.1257309913635254,0.1666666716337204,0.29532164335250854,0.5409356951713562,0.8040935397148131,1.0,0.8801169395446777,0.41228070855140686,0.10818713158369064,0.07894736528396606,0.09064327180385587,0.05555555596947669,0.03216374292969704,0.020467836409807205,0.023391813039779663,0.014619883149862288,0.017543859779834747,0.0,0.014619883149862288,0.014619883149862288,0.011695906519889832,0.03216374292969704,0.04093567281961441,0.0,0.0,0.0,0.0,0.0,0.0,0.0,0.0,0.0,0.0,0.0,0.0,0.0,0.0,0.0,0.0,0.0,0.0,0.0,0.0,0.0,0.0,0.0,0.0,0.0,0.0,0.0,0.0,0.0,0.0,0.0,0.0,0.0,0.0,0.0,0.0,0.0,0.0,0.0,0.0,0.0,0.0,0.0,0.0,0.0,0.0,0.0,0.0,0.0,0.0,0.0,0.0,0.0,0.0,0.0,0.0,0.0,0.0,0.0,0.0,0.0,0.0,0.0,0.0,0.0,0.0,0.0,0.0,0.0,0.0,0.0,0.0,0.0,0.0,0.0,0.0,0.0,0.0,0.0,0.0,0.0,0.0,0.0,0.0,0.0,0.0,0.0,0.0,0.0,0.0,0.0,0.0,0.0,0.0,0.0,0.0,0.0,0.0,0.0,0.0,0.0,0.0,0.0,0.0,0.0
0.36857143044471746,0.33714285492897034,0.21714285016059875,0.0,0.0714285746216774,0.07999999821186066,0.07999999821186066,0.025714285671710968,0.048571430146694176,0.014285714365541933,0.025714285671710968,0.031428571790456765,0.1428571492433548,0.20000000298023224,0.21999999880790713,0.1971428543329239,0.21999999880790713,0.20285713672637937,0.2257142812013626,0.21714285016059875,0.24285714328289032,0.2342857122421265,0.2685714364051819,0.27142858505249023,0.3085714280605316,0.3285714387893677,0.3742857277393341,0.3742857277393341,0.44285714626312256,0.46285715699195856,0.5199999809265137,0.5314285755157471,0.5714285969734192,0.5885714292526245,0.6085714101791382,0.5828571319580078,0.5485714077949524,0.4714285731315613,0.4257142841815949,0.34285715222358704,0.31142857670784,0.2685714364051819,0.25428572297096247,0.22857142984867093,0.21714285016059875,0.1971428543329239,0.21142856776714325,0.1914285719394684,0.19428572058677676,0.1542857140302658,0.16857142746448517,0.14000000059604645,0.1542857140302658,0.1257142871618271,0.12857143580913544,0.10857142508029936,0.1257142871618271,0.10571428388357162,0.12285714596509932,0.10571428388357162,0.11142857372760771,0.08571428805589677,0.09714286029338835,0.09428571164608,0.11714285612106325,0.10571428388357162,0.11714285612106325,0.10000000149011612,0.10000000149011612,0.07714285701513289,0.08857142925262451,0.07999999821186066,0.09142857044935225,0.08285713940858841,0.10571428388357162,0.09428571164608,0.11999999731779099,0.08857142925262451,0.11142857372760771,0.10571428388357162,0.1257142871618271,0.12285714596509932,0.1428571492433548,0.12285714596509932,0.14000000059604645,0.11428571492433548,0.13714285194873807,0.12285714596509932,0.12857143580913544,0.11714285612106325,0.14000000059604645,0.1257142871618271,0.1485714316368103,0.1257142871618271,0.13428571820259094,0.11714285612106325,0.1314285695552826,0.11428571492433548,0.13428571820259094,0.10857142508029936,0.14000000059604645,0.11714285612106325,0.1428571492433548,0.1314285695552826,0.13714285194873807,0.1257142871618271,0.1428571492433548,0.1257142871618271,0.1428571492433548,0.1314285695552826,0.14571428298950195,0.12857143580913544,0.1428571492433548,0.12857143580913544,0.14571428298950195,0.13714285194873807,0.17142857611179352,0.18857142329216003,0.21714285016059875,0.22285714745521543,0.239999994635582,0.24857142567634585,0.25428572297096247,0.23142857849597928,0.22285714745521543,0.17142857611179352,0.16285714507102966,0.12285714596509932,0.13428571820259094,0.10571428388357162,0.12285714596509932,0.12285714596509932,0.12857143580913544,0.11999999731779099,0.1485714316368103,0.1428571492433548,0.17714285850524902,0.24571429193019864,0.4285714328289032,0.6428571343421936,0.8799999952316285,1.0,0.6971428394317627,0.3000000119209289,0.1485714316368103,0.16857142746448517,0.17142857611179352,0.1485714316368103,0.14000000059604645,0.11999999731779099,0.12857143580913544,0.10285714268684389,0.11714285612106325,0.11428571492433548,0.13714285194873807,0.12285714596509932,0.15142856538295743,0.1485714316368103,0.16857142746448517,0.16285714507102966,0.18571428954601288,0.18000000715255737,0.20571428537368772,0.0,0.0,0.0,0.0,0.0,0.0,0.0,0.0,0.0,0.0,0.0,0.0,0.0,0.0,0.0,0.0,0.0,0.0,0.0,0.0,0.0,0.0,0.0,0.0,2.0
0.8881118893623352,0.7902097702026366,0.5489510297775269,0.19580419361591336,0.11888112127780914,0.0839160829782486,0.0839160829782486,0.059440560638904565,0.0559440553188324,0.031468532979488366,0.04895104840397834,0.02447552420198917,0.03496503457427025,0.02097902074456215,0.03496503457427025,0.02447552420198917,0.02447552420198917,0.003496503457427025,0.017482517287135124,0.0,0.0139860138297081,0.010489510372281075,0.031468532979488366,0.02097902074456215,0.0419580414891243,0.02447552420198917,0.0699300691485405,0.0559440553188324,0.07342657446861267,0.06293706595897675,0.09090909361839294,0.08741258829832077,0.11538461595773696,0.11888112127780914,0.139860138297081,0.14685314893722534,0.15034964680671692,0.14685314893722534,0.15034964680671692,0.1363636404275894,0.15734265744686127,0.14335663616657257,0.17132867872714996,0.15034964680671692,0.1678321659564972,0.15734265744686127,0.1818181872367859,0.17482517659664154,0.19580419361591336,0.17482517659664154,0.18881118297576904,0.17482517659664154,0.17832167446613312,0.1678321659564972,0.19580419361591336,0.17832167446613312,0.19930070638656616,0.1643356680870056,0.1678321659564972,0.15034964680671692,0.1678321659564972,0.15734265744686127,0.17482517659664154,0.1538461595773697,0.17482517659664154,0.16083915531635284,0.1678321659564972,0.1643356680870056,0.1818181872367859,0.17132867872714996,0.1923076957464218,0.1678321659564972,0.17132867872714996,0.1643356680870056,0.17482517659664154,0.17132867872714996,0.1818181872367859,0.14335663616657257,0.1923076957464218,0.3811188936233521,0.6258741021156311,0.8636363744735717,1.0,0.8706293702125549,0.5384615659713745,0.2377622425556183,0.17132867872714996,0.1363636404275894,0.12937062978744507,0.08741258829832077,0.09790209680795667,0.06293706595897675,0.0559440553188324,0.05244755372405052,0.0559440553188324,0.03496503457427025,0.031468532979488366,0.0139860138297081,0.02447552420198917,0.003496503457427025,0.0279720276594162,0.017482517287135124,0.04545454680919647,0.0,0.0,0.0,0.0,0.0,0.0,0.0,0.0,0.0,0.0,0.0,0.0,0.0,0.0,0.0,0.0,0.0,0.0,0.0,0.0,0.0,0.0,0.0,0.0,0.0,0.0,0.0,0.0,0.0,0.0,0.0,0.0,0.0,0.0,0.0,0.0,0.0,0.0,0.0,0.0,0.0,0.0,0.0,0.0,0.0,0.0,0.0,0.0,0.0,0.0,0.0,0.0,0.0,0.0,0.0,0.0,0.0,0.0,0.0,0.0,0.0,0.0,0.0,0.0,0.0,0.0,0.0,0.0,0.0,0.0,0.0,0.0,0.0,0.0,0.0,0.0,0.0,0.0,0.0,0.0,0.0,0.0,0.0,0.0,0.0
0.7829181551933287,0.7283511161804198,0.413997620344162,0.25148278474807734,0.3368920385837555,0.3285883665084839,0.29537367820739746,0.2882562279701233,0.2882562279701233,0.2894424796104431,0.2918149530887604,0.28232502937316895,0.2835112810134888,0.2906287014484405,0.2894424796104431,0.2882562279701233,0.28588375449180603,0.2918149530887604,0.2965599000453949,0.2918149530887604,0.2906287014484405,0.3013048768043518,0.2965599000453949,0.2965599000453949,0.30367735028266907,0.3155397474765777,0.31435349583625793,0.3119810223579407,0.3214709460735321,0.33570581674575806,0.34756821393966675,0.349940687417984,0.35943061113357544,0.3772242069244385,0.3855278789997101,0.3890866041183472,0.39264532923698425,0.40688019990921026,0.4163700938224792,0.40925267338752747,0.4021352231502533,0.39264532923698425,0.3784104287624359,0.3618030846118927,0.34756821393966675,0.34282323718070984,0.3368920385837555,0.32740214467048645,0.3250296413898468,0.3285883665084839,0.3262158930301666,0.3285883665084839,0.3262158930301666,0.32977461814880366,0.33451956510543823,0.32977461814880366,0.33214709162712097,0.33807829022407526,0.34756821393966675,0.3368920385837555,0.33807829022407526,0.3938315510749817,0.4839857518672943,0.5966785550117493,0.7473309636116029,0.9062870740890504,0.9940688014030457,1.0,0.9454329609870911,0.9027283787727358,0.909845769405365,0.8446025848388672,0.7141162753105164,0.4911032021045685,0.2977461516857147,0.28588375449180603,0.27639383077621454,0.25029656291007996,0.2360616773366928,0.22538553178310397,0.21589560806751248,0.21233689785003665,0.20640569925308228,0.19098457694053647,0.18149466812610623,0.17674970626831055,0.17674970626831055,0.17200474441051483,0.16132858395576477,0.14353498816490173,0.11506524682044982,0.08422300964593886,0.05456702411174774,0.02728351205587387,0.011862396262586117,0.0,0.0,0.0,0.0,0.0,0.0,0.0,0.0,0.0,0.0,0.0,0.0,0.0,0.0,0.0,0.0,0.0,0.0,0.0,0.0,0.0,0.0,0.0,0.0,0.0,0.0,0.0,0.0,0.0,0.0,0.0,0.0,0.0,0.0,0.0,0.0,0.0,0.0,0.0,0.0,0.0,0.0,0.0,0.0,0.0,0.0,0.0,0.0,0.0,0.0,0.0,0.0,0.0,0.0,0.0,0.0,0.0,0.0,0.0,0.0,0.0,0.0,0.0,0.0,0.0,0.0,0.0,0.0,0.0,0.0,0.0,0.0,0.0,0.0,0.0,0.0,0.0,0.0,0.0,0.0,0.0,0.0,0.0,0.0,0.0,0.0,0.0,0.0,0.0,0.0,0.0,0.0,0.0
1.0,0.8338461518287658,0.2430769205093384,0.035384614020586014,0.27076923847198486,0.32769230008125305,0.30153846740722656,0.3000000119209289,0.30307692289352417,0.3046153783798218,0.30307692289352417,0.31076923012733454,0.31076923012733454,0.309230774641037,0.3076923191547394,0.3153846263885498,0.3153846263885498,0.31076923012733454,0.3138461410999298,0.3199999928474426,0.3169230818748474,0.3123076856136322,0.3138461410999298,0.3199999928474426,0.3199999928474426,0.318461537361145,0.32307693362236023,0.33230769634246826,0.33076924085617065,0.32153844833374023,0.32769230008125305,0.3338461518287658,0.3400000035762787,0.3415384590625763,0.3430769145488739,0.3492307662963867,0.3523077070713043,0.3492307662963867,0.3507692217826843,0.35846152901649475,0.3523077070713043,0.3430769145488739,0.35384616255760193,0.3523077070713043,0.3415384590625763,0.32461538910865784,0.3123076856136322,0.3061538338661194,0.28923076391220087,0.2738461494445801,0.27076923847198486,0.2753846049308777,0.26769229769706726,0.26307693123817444,0.27076923847198486,0.2753846049308777,0.2753846049308777,0.27230769395828247,0.27076923847198486,0.2784615457057953,0.2784615457057953,0.27230769395828247,0.27230769395828247,0.2800000011920929,0.2800000011920929,0.27076923847198486,0.27076923847198486,0.2738461494445801,0.27076923847198486,0.26461538672447205,0.26307693123817444,0.27076923847198486,0.26615384221076965,0.26461538672447205,0.27230769395828247,0.2846153974533081,0.29230770468711853,0.29846152663230896,0.3046153783798218,0.3061538338661194,0.30307692289352417,0.29846152663230896,0.29230770468711853,0.28307691216468805,0.26307693123817444,0.2461538463830948,0.2492307722568512,0.2569230794906616,0.2492307722568512,0.2415384650230408,0.239999994635582,0.2461538463830948,0.2476923018693924,0.2476923018693924,0.2492307722568512,0.26307693123817444,0.26461538672447205,0.26769229769706726,0.3169230818748474,0.5169230699539185,0.892307698726654,0.989230751991272,0.4569230675697327,0.0,0.2138461470603943,0.33230769634246826,0.29384616017341614,0.2815384566783905,0.28923076391220087,0.28923076391220087,0.28769230842590326,0.29384616017341614,0.29230770468711853,0.29076921939849854,0.29384616017341614,0.2969230711460113,0.2969230711460113,0.29230770468711853,0.29538461565971375,0.3061538338661194,0.3046153783798218,0.0,0.0,0.0,0.0,0.0,0.0,0.0,0.0,0.0,0.0,0.0,0.0,0.0,0.0,0.0,0.0,0.0,0.0,0.0,0.0,0.0,0.0,0.0,0.0,0.0,0.0,0.0,0.0,0.0,0.0,0.0,0.0,0.0,0.0,0.0,0.0,0.0,0.0,0.0,0.0,0.0,0.0,0.0,0.0,0.0,0.0,0.0,0.0,0.0,0.0,0.0,0.0,0.0,0.0,0.0,0.0,0.0,0.0,0.0,0.0,0.0,0.0,0.0,0.0,0.0,0.0,0.0
1.0,0.698113203048706,0.04402515664696693,0.08176100999116898,0.11320754885673522,0.09433962404727936,0.09433962404727936,0.08176100999116898,0.07861635088920593,0.07547169923782349,0.08490566164255142,0.07547169923782349,0.08490566164255142,0.07232704758644104,0.08490566164255142,0.07232704758644104,0.08490566164255142,0.07547169923782349,0.07547169923782349,0.07232704758644104,0.08490566164255142,0.069182388484478,0.07861635088920593,0.07232704758644104,0.07232704758644104,0.069182388484478,0.07861635088920593,0.07232704758644104,0.08176100999116898,0.069182388484478,0.08490566164255142,0.07232704758644104,0.069182388484478,0.06603773683309555,0.07861635088920593,0.08176100999116898,0.10691823810338974,0.12264151126146317,0.14150942862033844,0.14150942862033844,0.15723270177841187,0.16352201998233795,0.16352201998233795,0.1540880501270294,0.15723270177841187,0.16352201998233795,0.1729559749364853,0.15723270177841187,0.1666666716337204,0.15094339847564697,0.1666666716337204,0.14465409517288208,0.1540880501270294,0.14150942862033844,0.14779874682426453,0.138364776968956,0.14150942862033844,0.14150942862033844,0.14150942862033844,0.13522012531757355,0.14465409517288208,0.13522012531757355,0.13522012531757355,0.138364776968956,0.14465409517288208,0.13522012531757355,0.138364776968956,0.138364776968956,0.14779874682426453,0.138364776968956,0.15094339847564697,0.14465409517288208,0.16352201998233795,0.18238992989063263,0.1949685513973236,0.20125785470008847,0.21069182455539703,0.20754717290401456,0.20754717290401456,0.1918238997459412,0.20125785470008847,0.21383647620677948,0.19811320304870603,0.16981132328510284,0.15723270177841187,0.138364776968956,0.14150942862033844,0.1257861703634262,0.138364776968956,0.1257861703634262,0.12893082201480863,0.1257861703634262,0.13522012531757355,0.10062892735004424,0.03773584961891174,0.0,0.2201257795095444,0.6037735939025879,0.9842767119407652,0.5220125913619995,0.04088050499558449,0.10691823810338974,0.11320754885673522,0.09433962404727936,0.10377358645200728,0.09119496494531631,0.10062892735004424,0.09748427569866179,0.10377358645200728,0.09119496494531631,0.10062892735004424,0.10377358645200728,0.10377358645200728,0.08805031329393385,0.10377358645200728,0.10062892735004424,0.09433962404727936,0.0,0.0,0.0,0.0,0.0,0.0,0.0,0.0,0.0,0.0,0.0,0.0,0.0,0.0,0.0,0.0,0.0,0.0,0.0,0.0,0.0,0.0,0.0,0.0,0.0,0.0,0.0,0.0,0.0,0.0,0.0,0.0,0.0,0.0,0.0,0.0,0.0,0.0,0.0,0.0,0.0,0.0,0.0,0.0,0.0,0.0,0.0,0.0,0.0,0.0,0.0,0.0,0.0,0.0,0.0,0.0,0.0,0.0,0.0,0.0,0.0,0.0,0.0,0.0,0.0,0.0,0.0,0.0,0.0,0.0,0.0
1.0,0.8168224096298218,0.6785046458244324,0.5084112286567688,0.452336460351944,0.4112149477005005,0.3887850344181061,0.3962616920471192,0.38317757844924927,0.3850467205047608,0.38691589236259455,0.3887850344181061,0.38691589236259455,0.38691589236259455,0.37383177876472473,0.36822429299354553,0.36822429299354553,0.37570092082023615,0.37383177876472473,0.38317757844924927,0.39065420627594,0.3943925201892853,0.401869148015976,0.42616823315620417,0.42616823315620417,0.4373831748962402,0.44485980272293085,0.44485980272293085,0.4411214888095856,0.4280373752117157,0.3943925201892853,0.37757009267807007,0.3570093512535095,0.31962618231773376,0.31401869654655457,0.30841121077537537,0.3009345829486847,0.293457955121994,0.27476635575294495,0.2897196114063263,0.2672897279262543,0.23925234377384183,0.22429905831813807,0.21121495962142944,0.17943924665451047,0.14205607771873474,0.1214953288435936,0.1308411210775375,0.1271028071641922,0.1327102780342102,0.15327103435993195,0.15140186250209808,0.1607476621866226,0.16448597609996796,0.1869158893823624,0.15140186250209808,0.1214953288435936,0.14579439163208008,0.1607476621866226,0.15700934827327728,0.14205607771873474,0.14579439163208008,0.0859813094139099,0.04859812930226325,0.014953271485865116,0.0,0.020560747012495995,0.026168223470449448,0.024299064651131626,0.1214953288435936,0.2205607444047928,0.25046730041503906,0.23551401495933527,0.31401869654655457,0.4859813153743744,0.6747663617134094,0.7682242989540099,0.5700934529304504,0.4560747742652893,0.36074766516685486,0.3420560657978058,0.3121495246887207,0.31962618231773376,0.3570093512535095,0.37757009267807007,0.4168224334716797,0.4392523467540741,0.4803738296031952,0.5009346008300781,0.5084112286567688,0.47663551568984985,0.0,0.0,0.0,0.0,0.0,0.0,0.0,0.0,0.0,0.0,0.0,0.0,0.0,0.0,0.0,0.0,0.0,0.0,0.0,0.0,0.0,0.0,0.0,0.0,0.0,0.0,0.0,0.0,0.0,0.0,0.0,0.0,0.0,0.0,0.0,0.0,0.0,0.0,0.0,0.0,0.0,0.0,0.0,0.0,0.0,0.0,0.0,0.0,0.0,0.0,0.0,0.0,0.0,0.0,0.0,0.0,0.0,0.0,0.0,0.0,0.0,0.0,0.0,0.0,0.0,0.0,0.0,0.0,0.0,0.0,0.0,0.0,0.0,0.0,0.0,0.0,0.0,0.0,0.0,0.0,0.0,0.0,0.0,0.0,0.0,0.0,0.0,0.0,0.0,0.0,0.0,0.0,0.0,0.0,0.0,0.0,0.0
0.9914712309837341,0.9680170416831969,0.8017057776451111,0.5479744076728821,0.29424306750297546,0.1940298527479172,0.181236669421196,0.07249467074871062,0.09381663054227829,0.10660980641841888,0.03837953135371208,0.08955223858356477,0.11300639808177948,0.0810234546661377,0.0,0.09168443828821182,0.11940298229455948,0.09808102250099182,0.08528784662485121,0.10021322220563889,0.0810234546661377,0.1492537260055542,0.1620469093322754,0.21108742058277127,0.15138593316078186,0.27718549966812134,0.1620469093322754,0.2196162045001984,0.2857142984867096,0.3347547948360443,0.2515991330146789,0.1918976604938507,0.22601279616355896,0.27931770682334894,0.18976545333862305,0.18976545333862305,0.18550106883049008,0.18976545333862305,0.2196162045001984,0.17484009265899658,0.18976545333862305,0.13859274983406067,0.21108742058277127,0.21535180509090424,0.12579956650733948,0.23240938782691956,0.21535180509090424,0.24520255625247955,0.1556503176689148,0.181236669421196,0.20895522832870483,0.2665245234966278,0.123667374253273,0.1940298527479172,0.19616204500198364,0.22814498841762543,0.16417910158634183,0.18763326108455655,0.1364605575799942,0.24520255625247955,0.168443500995636,0.18976545333862305,0.28784647583961487,0.14498934149742126,0.19829423725605008,0.22601279616355896,0.2537313401699066,0.24307036399841309,0.1300639659166336,0.2750532925128937,0.2558635473251343,0.19616204500198364,0.13859274983406067,0.18336887657642365,0.2622601389884949,0.19616204500198364,0.21321961283683777,0.2196162045001984,0.28358209133148193,0.3176972270011902,0.447761207818985,0.611940324306488,0.8614072203636169,0.9957355856895447,1.0,0.8187633156776429,0.6481876373291016,0.2814498841762543,0.11513859033584593,0.13859274983406067,0.12579956650733948,0.07889125496149062,0.05117270722985268,0.10874200612306593,0.1279317736625671,0.017057569697499275,0.021321961656212807,0.09381663054227829,0.06609807908535004,0.09594883024692535,0.025586353614926335,0.09381663054227829,0.0,0.0,0.0,0.0,0.0,0.0,0.0,0.0,0.0,0.0,0.0,0.0,0.0,0.0,0.0,0.0,0.0,0.0,0.0,0.0,0.0,0.0,0.0,0.0,0.0,0.0,0.0,0.0,0.0,0.0,0.0,0.0,0.0,0.0,0.0,0.0,0.0,0.0,0.0,0.0,0.0,0.0,0.0,0.0,0.0,0.0,0.0,0.0,0.0,0.0,0.0,0.0,0.0,0.0,0.0,0.0,0.0,0.0,0.0,0.0,0.0,0.0,0.0,0.0,0.0,0.0,0.0,0.0,0.0,0.0,0.0,0.0,0.0,0.0,0.0,0.0,0.0,0.0,0.0,0.0,0.0,0.0,0.0,0.0,0.0,0.0
1.0,0.8284839391708374,0.24655435979366305,0.027565084397792816,0.25114855170249933,0.32771822810173035,0.30627870559692383,0.29402756690979004,0.30168452858924866,0.30015313625335693,0.30015313625335693,0.30627870559692383,0.30627870559692383,0.30168452858924866,0.30168452858924866,0.3093414902687073,0.30781009793281555,0.3032159209251404,0.3124042749404907,0.3124042749404907,0.31393566727638245,0.30627870559692383,0.3124042749404907,0.3154670894145965,0.3154670894145965,0.31087288260459894,0.3169984817504883,0.3231240510940552,0.3200612664222717,0.3169984817504883,0.3246554434299469,0.33078101277351374,0.32924962043762207,0.3323124051094055,0.33996936678886414,0.34609493613243103,0.34762632846832275,0.3491577208042145,0.3583461046218872,0.36140888929367065,0.36600306630134577,0.3644716739654541,0.37059724330902094,0.37519142031669617,0.3675344586372376,0.3568147122859955,0.3445635437965393,0.32924962043762207,0.31087288260459894,0.2924961745738983,0.28943338990211487,0.283307820558548,0.27411943674087524,0.26186829805374146,0.26186829805374146,0.2649310827255249,0.2664624750614166,0.2572741210460663,0.2572741210460663,0.2633996903896332,0.26033690571784973,0.26186829805374146,0.26033690571784973,0.27105665206909174,0.2695252597332001,0.26186829805374146,0.2649310827255249,0.27565082907676697,0.27565082907676697,0.2649310827255249,0.2664624750614166,0.27565082907676697,0.2725880444049835,0.2664624750614166,0.2664624750614166,0.2725880444049835,0.2695252597332001,0.258805513381958,0.2695252597332001,0.2695252597332001,0.26799386739730835,0.2725880444049835,0.28024503588676447,0.29555895924568176,0.30168452858924866,0.3093414902687073,0.30781009793281555,0.31393566727638245,0.31087288260459894,0.2986217439174652,0.2924961745738983,0.2771822214126587,0.2695252597332001,0.26186829805374146,0.26186829805374146,0.2633996903896332,0.2649310827255249,0.2633996903896332,0.26186829805374146,0.26799386739730835,0.2664624750614166,0.2649310827255249,0.2771822214126587,0.2863706052303314,0.29096478223800654,0.3200612664222717,0.4931087195873261,0.8575804233551025,0.952526807785034,0.4211332201957703,0.0,0.223583459854126,0.3384379744529724,0.31393566727638245,0.30168452858924866,0.3169984817504883,0.31087288260459894,0.3124042749404907,0.3200612664222717,0.3200612664222717,0.32159265875816345,0.31852987408638,0.3246554434299469,0.33384379744529724,0.3323124051094055,0.3231240510940552,0.3246554434299469,0.0,0.0,0.0,0.0,0.0,0.0,0.0,0.0,0.0,0.0,0.0,0.0,0.0,0.0,0.0,0.0,0.0,0.0,0.0,0.0,0.0,0.0,0.0,0.0,0.0,0.0,0.0,0.0,0.0,0.0,0.0,0.0,0.0,0.0,0.0,0.0,0.0,0.0,0.0,0.0,0.0,0.0,0.0,0.0,0.0,0.0,0.0,0.0,0.0,0.0,0.0,0.0,0.0,0.0,0.0,0.0,0.0,0.0,0.0,0.0,0.0
1.0,0.932692289352417,0.4663461446762085,0.0,0.02884615398943424,0.1923076957464218,0.233974352478981,0.21153846383094788,0.2083333283662796,0.21153846383094788,0.2163461595773697,0.22275641560554504,0.22275641560554504,0.21794871985912323,0.2195512801408768,0.22435897588729856,0.2211538404226303,0.22275641560554504,0.2275640964508057,0.22596153616905207,0.2211538404226303,0.2195512801408768,0.23076923191547397,0.23076923191547397,0.23076923191547397,0.23878204822540283,0.24358974397182465,0.2483974397182465,0.24519230425357816,0.25,0.2676281929016113,0.2772435843944549,0.2756410241127014,0.2740384638309479,0.27243590354919434,0.2740384638309479,0.25160256028175354,0.25,0.2532051205635071,0.2564102709293365,0.2532051205635071,0.25160256028175354,0.2548076808452606,0.25160256028175354,0.2483974397182465,0.25,0.2564102709293365,0.2612179517745972,0.2532051205635071,0.2532051205635071,0.2612179517745972,0.2596153914928436,0.25160256028175354,0.2548076808452606,0.2580128312110901,0.2564102709293365,0.24519230425357816,0.24198718369007113,0.2483974397182465,0.25160256028175354,0.24358974397182465,0.23557692766189572,0.24519230425357816,0.2548076808452606,0.24198718369007113,0.24358974397182465,0.25160256028175354,0.2532051205635071,0.24358974397182465,0.25,0.2548076808452606,0.2628205120563507,0.2708333432674408,0.2740384638309479,0.28044870495796204,0.29326921701431274,0.28525641560554504,0.2740384638309479,0.2756410241127014,0.2612179517745972,0.25,0.24358974397182465,0.23878204822540283,0.2291666716337204,0.233974352478981,0.24519230425357816,0.2564102709293365,0.2756410241127014,0.30128204822540283,0.33173078298568726,0.36057692766189575,0.39423078298568726,0.42147436738014227,0.45352563261985773,0.5833333134651184,0.7996794581413269,0.9711538553237917,0.8541666865348816,0.39423078298568726,0.0064102564938366404,0.06891025602817535,0.22596153616905207,0.26602563261985773,0.2548076808452606,0.24679486453533167,0.2548076808452606,0.26602563261985773,0.26602563261985773,0.2628205120563507,0.2596153914928436,0.2580128312110901,0.26602563261985773,0.2628205120563507,0.2580128312110901,0.2628205120563507,0.0,0.0,0.0,0.0,0.0,0.0,0.0,0.0,0.0,0.0,0.0,0.0,0.0,0.0,0.0,0.0,0.0,0.0,0.0,0.0,0.0,0.0,0.0,0.0,0.0,0.0,0.0,0.0,0.0,0.0,0.0,0.0,0.0,0.0,0.0,0.0,0.0,0.0,0.0,0.0,0.0,0.0,0.0,0.0,0.0,0.0,0.0,0.0,0.0,0.0,0.0,0.0,0.0,0.0,0.0,0.0,0.0,0.0,0.0,0.0,0.0,0.0,0.0,0.0,0.0,0.0,0.0,0.0,0.0,0.0,0.0,0.0,0.0
0.9830827116966248,0.9135338068008423,0.451127827167511,0.0,0.04887218028306961,0.2781955003738404,0.3834586441516876,0.3984962403774261,0.39661654829978943,0.4097744226455688,0.41729322075843805,0.411654144525528,0.42105263471603394,0.4304511249065399,0.4379699230194092,0.43984961509704584,0.4473684132099152,0.4624060094356537,0.4699248075485229,0.47744360566139216,0.48684209585189814,0.5037593841552734,0.5225563645362854,0.5319548845291138,0.5432330965995789,0.5639097690582275,0.5789473652839661,0.5827067494392395,0.5958646535873413,0.6071428656578064,0.6090225577354431,0.6052631735801697,0.6052631735801697,0.5958646535873413,0.5695488452911377,0.5432330965995789,0.5112782120704651,0.4830827116966248,0.4548872113227844,0.43609023094177246,0.41541352868080134,0.411654144525528,0.4097744226455688,0.40037593245506287,0.3928571343421936,0.3947368562221527,0.40601503849029535,0.3947368562221527,0.3984962403774261,0.41353383660316473,0.40601503849029535,0.40601503849029535,0.4097744226455688,0.4078947305679321,0.411654144525528,0.40601503849029535,0.40413534641265864,0.4078947305679321,0.40413534641265864,0.39661654829978943,0.3909774422645569,0.3984962403774261,0.3909774422645569,0.37781953811645513,0.38533833622932434,0.3928571343421936,0.38721805810928334,0.3740601539611816,0.37781953811645513,0.3796992599964142,0.3759398460388184,0.3740601539611816,0.3740601539611816,0.3815789520740509,0.3834586441516876,0.37781953811645513,0.3834586441516876,0.40413534641265864,0.411654144525528,0.41729322075843805,0.4248120188713074,0.4285714328289032,0.4266917407512665,0.40601503849029535,0.3928571343421936,0.3928571343421936,0.38533833622932434,0.3665413558483124,0.3665413558483124,0.36842104792594904,0.3740601539611816,0.37030074000358576,0.36466166377067566,0.3759398460388184,0.3759398460388184,0.37218046188354487,0.3759398460388184,0.39661654829978943,0.41353383660316473,0.4830827116966248,0.6710526347160339,0.9229323267936705,1.0,0.7086465954780579,0.21804511547088623,0.009398495778441427,0.20676691830158236,0.3834586441516876,0.42105263471603394,0.4191729426383972,0.42293232679367065,0.4285714328289032,0.4266917407512665,0.43984961509704584,0.44360902905464167,0.44172933697700495,0.4454887211322784,0.4624060094356537,0.4661654233932495,0.46804511547088623,0.4793232977390289,0.49436089396476746,0.5037593841552734,0.0,0.0,0.0,0.0,0.0,0.0,0.0,0.0,0.0,0.0,0.0,0.0,0.0,0.0,0.0,0.0,0.0,0.0,0.0,0.0,0.0,0.0,0.0,0.0,0.0,0.0,0.0,0.0,0.0,0.0,0.0,0.0,0.0,0.0,0.0,0.0,0.0,0.0,0.0,0.0,0.0,0.0,0.0,0.0,0.0,0.0,0.0,0.0,0.0,0.0,0.0,0.0,0.0,0.0,0.0,0.0,0.0,0.0,0.0,0.0,0.0,0.0,0.0,0.0,0.0
0.9313725233078003,0.938725471496582,0.6274510025978088,0.24509803950786593,0.08088235557079315,0.06862745434045792,0.08333333581686019,0.09803921729326248,0.09313725680112839,0.07843137532472609,0.08088235557079315,0.08333333581686019,0.06617647409439087,0.06372549384832382,0.06372549384832382,0.06127450987696648,0.05147058889269829,0.04411764815449715,0.05147058889269829,0.053921569138765335,0.029411764815449715,0.03431372717022896,0.039215687662363045,0.039215687662363045,0.02450980432331562,0.01225490216165781,0.014705882407724856,0.01715686358511448,0.0024509804788976908,0.0,0.009803921915590765,0.01715686358511448,0.01225490216165781,0.02450980432331562,0.04901960864663124,0.07843137532472609,0.09068627655506134,0.11029411852359772,0.1200980395078659,0.1323529481887817,0.1323529481887817,0.12745098769664764,0.12745098769664764,0.12990196049213407,0.12990196049213407,0.12990196049213407,0.13725490868091583,0.1323529481887817,0.12745098769664764,0.1200980395078659,0.12254901975393297,0.1200980395078659,0.11274509876966476,0.11274509876966476,0.11764705926179884,0.1200980395078659,0.11029411852359772,0.11029411852359772,0.11764705926179884,0.12990196049213407,0.1200980395078659,0.125,0.13970588147640228,0.15441176295280457,0.1617647111415863,0.1617647111415863,0.1764705926179886,0.20588235557079315,0.21323528885841367,0.21323528885841367,0.21078431606292725,0.2034313678741455,0.1764705926179886,0.15931372344493863,0.15196079015731812,0.13970588147640228,0.1348039209842682,0.12990196049213407,0.14215686917304993,0.14705882966518402,0.14705882966518402,0.14460784196853635,0.17892156541347504,0.22303920984268188,0.34068626165390015,0.531862735748291,0.8039215803146361,0.9607843160629272,1.0,0.6666666865348816,0.19607843458652496,0.06127450987696648,0.08578431606292723,0.09803921729326248,0.10539215803146362,0.10049019753932951,0.0882352963089943,0.0882352963089943,0.08578431606292723,0.09558823704719543,0.0,0.0,0.0,0.0,0.0,0.0,0.0,0.0,0.0,0.0,0.0,0.0,0.0,0.0,0.0,0.0,0.0,0.0,0.0,0.0,0.0,0.0,0.0,0.0,0.0,0.0,0.0,0.0,0.0,0.0,0.0,0.0,0.0,0.0,0.0,0.0,0.0,0.0,0.0,0.0,0.0,0.0,0.0,0.0,0.0,0.0,0.0,0.0,0.0,0.0,0.0,0.0,0.0,0.0,0.0,0.0,0.0,0.0,0.0,0.0,0.0,0.0,0.0,0.0,0.0,0.0,0.0,0.0,0.0,0.0,0.0,0.0,0.0,0.0,0.0,0.0,0.0,0.0,0.0,0.0,0.0,0.0,0.0,0.0,0.0,0.0,0.0,0.0
1.0,0.7017114758491516,0.1882640570402145,0.014669926837086676,0.05623471736907959,0.05867970734834671,0.014669926837086676,0.0024449878837913275,0.0024449878837913275,0.02200488932430744,0.007334963418543338,0.0,0.014669926837086676,0.019559903070330616,0.00977995153516531,0.004889975767582655,0.019559903070330616,0.03667481616139412,0.03667481616139412,0.0342298299074173,0.046454768627882,0.05378973111510277,0.061124693602323525,0.051344744861125946,0.06601466983556747,0.06356967985630035,0.06356967985630035,0.061124693602323525,0.061124693602323525,0.07579462230205536,0.08068459481000899,0.08801955729722977,0.11002445220947264,0.1051344722509384,0.10024449974298476,0.09779950976371764,0.09535451978445053,0.09046454727649687,0.08312958478927612,0.07823961228132248,0.08312958478927612,0.08312958478927612,0.08801955729722977,0.08801955729722977,0.09779950976371764,0.08068459481000899,0.08801955729722977,0.09046454727649687,0.10024449974298476,0.08801955729722977,0.08068459481000899,0.08068459481000899,0.09779950976371764,0.09779950976371764,0.07579462230205536,0.07823961228132248,0.09046454727649687,0.092909537255764,0.07334963232278822,0.08068459481000899,0.1051344722509384,0.12224938720464706,0.12224938720464706,0.14669926464557648,0.17603911459445953,0.18092909455299375,0.15892420709133148,0.15892420709133148,0.15158924460411072,0.10757946223020552,0.07823961228132248,0.07334963232278822,0.07334963232278822,0.05378973111510277,0.04156479239463806,0.048899754881858826,0.048899754881858826,0.03911980614066124,0.149144247174263,0.46210268139839167,0.8753056526184082,0.9633252024650573,0.5476772785186768,0.13202933967113495,0.051344744861125946,0.07579462230205536,0.04400977864861488,0.0024449878837913275,0.03178483992815018,0.0342298299074173,0.026894865557551384,0.00977995153516531,0.03178483992815018,0.03178483992815018,0.014669926837086676,0.00977995153516531,0.029339853674173355,0.0,0.0,0.0,0.0,0.0,0.0,0.0,0.0,0.0,0.0,0.0,0.0,0.0,0.0,0.0,0.0,0.0,0.0,0.0,0.0,0.0,0.0,0.0,0.0,0.0,0.0,0.0,0.0,0.0,0.0,0.0,0.0,0.0,0.0,0.0,0.0,0.0,0.0,0.0,0.0,0.0,0.0,0.0,0.0,0.0,0.0,0.0,0.0,0.0,0.0,0.0,0.0,0.0,0.0,0.0,0.0,0.0,0.0,0.0,0.0,0.0,0.0,0.0,0.0,0.0,0.0,0.0,0.0,0.0,0.0,0.0,0.0,0.0,0.0,0.0,0.0,0.0,0.0,0.0,0.0,0.0,0.0,0.0,0.0,0.0,0.0,0.0,0.0,0.0,0.0,0.0
1.0,0.5591182112693787,0.0,0.07815631479024887,0.06212424859404564,0.12424849718809128,0.15430861711502075,0.15631262958049774,0.16232465207576752,0.17034068703651428,0.1683366745710373,0.16232465207576752,0.17034068703651428,0.17835670709609985,0.17635270953178403,0.1863727420568466,0.1883767545223236,0.19438877701759336,0.19438877701759336,0.20440882444381717,0.20440882444381717,0.22044087946414948,0.2224448919296265,0.23246492445468905,0.2464929819107056,0.25651302933692927,0.27655309438705444,0.30060121417045593,0.31863728165626526,0.3446893692016601,0.378757506608963,0.4108216464519501,0.4348697364330292,0.4649298489093781,0.49298596382141113,0.52304607629776,0.5350701212882996,0.5490981936454773,0.5370741486549377,0.49899798631668085,0.4388777613639832,0.3727454841136932,0.3086172342300415,0.25250500440597534,0.20841683447360992,0.17434869706630707,0.15430861711502075,0.13627254962921143,0.13026052713394165,0.1182364746928215,0.11623246222734453,0.11222445219755171,0.11222445219755171,0.11222445219755171,0.11222445219755171,0.11422845721244812,0.10821643471717834,0.11623246222734453,0.12024047970771788,0.11623246222734453,0.11623246222734453,0.1182364746928215,0.11623246222734453,0.12224449217319489,0.1182364746928215,0.12224449217319489,0.11623246222734453,0.11623246222734453,0.11422845721244812,0.11422845721244812,0.11422845721244812,0.11422845721244812,0.10621242225170135,0.11022043973207472,0.11222445219755171,0.10821643471717834,0.10420841723680496,0.10621242225170135,0.10020039975643157,0.10420841723680496,0.09819639474153519,0.10220441222190856,0.10420841723680496,0.10420841723680496,0.10020039975643157,0.10020039975643157,0.10220441222190856,0.10220441222190856,0.10621242225170135,0.10420841723680496,0.09819639474153519,0.10821643471717834,0.09819639474153519,0.10420841723680496,0.10621242225170135,0.10621242225170135,0.10821643471717834,0.1182364746928215,0.12424849718809128,0.13827654719352722,0.1402805596590042,0.14829659461975095,0.1422845721244812,0.1422845721244812,0.13226452469825745,0.12024047970771788,0.11222445219755171,0.11623246222734453,0.11623246222734453,0.12424849718809128,0.1182364746928215,0.12424849718809128,0.13226452469825745,0.12825651466846466,0.08817635476589203,0.11623246222734453,0.44889780879020685,0.9398797750473022,0.9038076400756837,0.1663326621055603,0.060120239853858955,0.06813627481460571,0.09218437224626541,0.14829659461975095,0.14829659461975095,0.15030060708522797,0.15430861711502075,0.15631262958049774,0.15430861711502075,0.16232465207576752,0.16032063961029053,0.1663326621055603,0.16032063961029053,0.17234468460083008,0.17434869706630707,0.17835670709609985,0.17234468460083008,0.1883767545223236,0.1923847645521164,0.19438877701759336,0.20240481197834012,0.21843686699867249,0.0,0.0,0.0,0.0,0.0,0.0,0.0,0.0,0.0,0.0,0.0,0.0,0.0,0.0,0.0,0.0,0.0,0.0,0.0,0.0,0.0,0.0,0.0,0.0,0.0,0.0,0.0,0.0,0.0,0.0,0.0,0.0,0.0,0.0,0.0,0.0,0.0,0.0,0.0,0.0,0.0,0.0,0.0,0.0,0.0,0.0
0.9534883499145507,0.8720930218696593,0.3322259187698364,0.0,0.08803986757993698,0.17940199375152588,0.23421926796436307,0.26578071713447565,0.262458473443985,0.26411959528923035,0.27242523431777954,0.26744186878204346,0.2607973515987396,0.262458473443985,0.2707641124725342,0.27242523431777954,0.26744186878204346,0.2691029906272888,0.2807309031486511,0.2691029906272888,0.26578071713447565,0.27242523431777954,0.28405314683914185,0.277408629655838,0.27242523431777954,0.2906976640224457,0.29900333285331726,0.2956810593605041,0.29900333285331726,0.32059800624847407,0.33056479692459106,0.3438538312911988,0.3455149531364441,0.3621262311935425,0.38870432972908014,0.38538205623626715,0.40033221244812006,0.41362127661705017,0.420265793800354,0.4186046421527863,0.40531560778617853,0.3986710906028748,0.3820598125457764,0.3521594703197479,0.32724252343177795,0.3222591280937195,0.3139534890651703,0.30398669838905334,0.2956810593605041,0.2956810593605041,0.3006644546985626,0.28405314683914185,0.28405314683914185,0.2890365421772003,0.2973421812057495,0.2923588156700134,0.2873754203319549,0.29900333285331726,0.3006644546985626,0.2956810593605041,0.2923588156700134,0.3056478500366211,0.3089700937271118,0.30398669838905334,0.2973421812057495,0.3056478500366211,0.317275732755661,0.3056478500366211,0.302325576543808,0.3106312155723572,0.3089700937271118,0.2973421812057495,0.2973421812057495,0.3056478500366211,0.30730897188186646,0.29900333285331726,0.2940199375152588,0.3006644546985626,0.30398669838905334,0.2956810593605041,0.2890365421772003,0.2973421812057495,0.3006644546985626,0.2923588156700134,0.2857142984867096,0.2973421812057495,0.3006644546985626,0.2923588156700134,0.2906976640224457,0.2973421812057495,0.3056478500366211,0.317275732755661,0.32059800624847407,0.3338870406150818,0.3621262311935425,0.3521594703197479,0.33554816246032715,0.3338870406150818,0.3372093141078949,0.32392027974128723,0.2940199375152588,0.2857142984867096,0.27906978130340576,0.2691029906272888,0.262458473443985,0.262458473443985,0.2691029906272888,0.2691029906272888,0.2607973515987396,0.27242523431777954,0.2807309031486511,0.27574750781059265,0.27906978130340576,0.2857142984867096,0.30398669838905334,0.31229236721992487,0.39700996875762934,0.6511628031730652,0.945182740688324,1.0,0.5199335813522339,0.029900332912802696,0.07807309180498123,0.21262457966804504,0.2458471804857254,0.2823920249938965,0.2973421812057495,0.2823920249938965,0.2807309031486511,0.2890365421772003,0.2956810593605041,0.28405314683914185,0.27906978130340576,0.2857142984867096,0.2923588156700134,0.2823920249938965,0.27906978130340576,0.2906976640224457,0.2923588156700134,0.2890365421772003,0.2857142984867096,0.2940199375152588,0.3056478500366211,0.0,0.0,0.0,0.0,0.0,0.0,0.0,0.0,0.0,0.0,0.0,0.0,0.0,0.0,0.0,0.0,0.0,0.0,0.0,0.0,0.0,0.0,0.0,0.0,0.0,0.0,0.0,0.0,0.0,0.0,0.0,0.0,0.0,0.0,0.0,0.0,0.0,0.0,0.0,0.0,0.0,0.0,0.0,0.0,0.0
1.0,0.5566219091415405,0.0,0.07293666154146193,0.10172744840383528,0.16314779222011566,0.1458733230829239,0.16122840344905853,0.15738964080810547,0.17658349871635437,0.1650671809911728,0.1785028725862503,0.1727447211742401,0.18809980154037476,0.17466410994529724,0.19577735662460327,0.18042226135730743,0.20345489680767057,0.1976967304944992,0.21113243699073792,0.20537428557872767,0.22456814348697665,0.21689058840274808,0.2418426126241684,0.23992322385311127,0.2610364556312561,0.2667946219444275,0.28982725739479065,0.2975048124790192,0.32629558444023127,0.3435700535774231,0.3781189918518066,0.39731284976005554,0.43186181783676153,0.4529750347137451,0.48752400279045105,0.4971209168434143,0.533589243888855,0.5278310775756836,0.5451055765151978,0.4971209168434143,0.44337812066078186,0.3646833002567291,0.30902111530303955,0.23992322385311127,0.20537428557872767,0.16122840344905853,0.1458733230829239,0.1209213063120842,0.11900191754102706,0.10364682972431181,0.10748560726642609,0.09404990077018736,0.10748560726642609,0.09404990077018736,0.10748560726642609,0.09404990077018736,0.10364682972431181,0.09980805963277815,0.11132437735795973,0.10364682972431181,0.11324375867843628,0.10556621849536896,0.1094049885869026,0.1094049885869026,0.11708253622055052,0.10748560726642609,0.11132437735795973,0.10556621849536896,0.10748560726642609,0.09404990077018736,0.1094049885869026,0.09980805963277815,0.11132437735795973,0.09404990077018736,0.10364682972431181,0.09213051944971085,0.09788867831230164,0.08829174935817719,0.09980805963277815,0.08829174935817719,0.10172744840383528,0.08829174935817719,0.10172744840383528,0.09021113067865373,0.09596928954124449,0.08637236058712004,0.10172744840383528,0.09213051944971085,0.09788867831230164,0.08445297181606291,0.09980805963277815,0.09596928954124449,0.10748560726642609,0.11132437735795973,0.13051822781562805,0.1209213063120842,0.14203454554080963,0.1343570053577423,0.1401151567697525,0.12284068763256072,0.12476007640361785,0.09788867831230164,0.10748560726642609,0.08829174935817719,0.10556621849536896,0.10172744840383528,0.1094049885869026,0.09788867831230164,0.1151631474494934,0.10748560726642609,0.1209213063120842,0.07293666154146193,0.07293666154146193,0.20153550803661344,0.6449136137962341,0.9654510617256163,0.8675623536109923,0.17082533240318298,0.030710171908140182,0.0383877158164978,0.061420343816280365,0.08445297181606291,0.13243761658668518,0.13243761658668518,0.14203454554080963,0.13243761658668518,0.14971208572387695,0.1401151567697525,0.1554702520370483,0.147792711853981,0.15163147449493408,0.14971208572387695,0.16314779222011566,0.1554702520370483,0.17466410994529724,0.1650671809911728,0.17658349871635437,0.1727447211742401,0.1842610388994217,0.1785028725862503,0.0,0.0,0.0,0.0,0.0,0.0,0.0,0.0,0.0,0.0,0.0,0.0,0.0,0.0,0.0,0.0,0.0,0.0,0.0,0.0,0.0,0.0,0.0,0.0,0.0,0.0,0.0,0.0,0.0,0.0,0.0,0.0,0.0,0.0,0.0,0.0,0.0,0.0,0.0,0.0,0.0,0.0,0.0,0.0,0.0,0.0,0.0
0.6418816447257996,0.5493171215057373,0.39757207036018366,0.08345978707075119,0.0,0.037936266511678696,0.006069802679121494,0.012139605358242989,0.03338391333818436,0.08042488247156142,0.14719271659851074,0.20637328922748563,0.24430955946445465,0.26707130670547485,0.27465856075286865,0.28072836995124817,0.2928679883480072,0.29590287804603577,0.30500757694244385,0.32018208503723145,0.3232170045375824,0.32625189423561096,0.3399089574813843,0.36570560932159424,0.3626707196235657,0.3793626725673676,0.4097116887569427,0.44006070494651794,0.48406675457954407,0.5204855799674988,0.5477997064590454,0.5857359766960144,0.6145675182342529,0.626707136631012,0.6100151538848877,0.6130501031875609,0.5902883410453796,0.5523520708084105,0.5326251983642578,0.4977238178253174,0.4734446108341217,0.4461305141448975,0.4188163876533508,0.3945371806621552,0.3839150369167328,0.3687405288219452,0.36570560932159424,0.35811835527420044,0.35204854607582087,0.3535660207271576,0.35204854607582087,0.35811835527420044,0.3626707196235657,0.35053110122680664,0.34901365637779236,0.35053110122680664,0.34597876667976374,0.3399089574813843,0.33535659313201904,0.3232170045375824,0.32169952988624567,0.3141123056411743,0.31259483098983765,0.3019726872444153,0.29590287804603577,0.28983306884765625,0.2989377975463867,0.29742032289505005,0.2928679883480072,0.27617603540420527,0.2867981791496277,0.2792109251022339,0.2852807343006134,0.27617603540420527,0.28072836995124817,0.28072836995124817,0.2837632894515991,0.27465856075286865,0.2776934802532196,0.2716236710548401,0.26707130670547485,0.2701062262058258,0.2716236710548401,0.2731411159038544,0.2776934802532196,0.27617603540420527,0.28224581480026245,0.2776934802532196,0.27617603540420527,0.28072836995124817,0.27465856075286865,0.2837632894515991,0.2701062262058258,0.2837632894515991,0.27465856075286865,0.2716236710548401,0.2731411159038544,0.27465856075286865,0.288315623998642,0.26707130670547485,0.2716236710548401,0.2701062262058258,0.2837632894515991,0.2776934802532196,0.28224581480026245,0.2852807343006134,0.2731411159038544,0.28224581480026245,0.28072836995124817,0.2776934802532196,0.2867981791496277,0.288315623998642,0.2867981791496277,0.28224581480026245,0.2852807343006134,0.2837632894515991,0.288315623998642,0.2867981791496277,0.29135054349899286,0.2852807343006134,0.29135054349899286,0.2943854331970215,0.300455242395401,0.29135054349899286,0.30652505159378046,0.31259483098983765,0.3399089574813843,0.36418816447258,0.39301973581314087,0.39605462551116943,0.3945371806621552,0.36115327477455134,0.3399089574813843,0.3247344493865967,0.2989377975463867,0.3034901320934296,0.29590287804603577,0.2731411159038544,0.26100152730941767,0.4977238178253174,0.8907435536384583,1.0,0.8012139797210692,0.2321699559688568,0.2731411159038544,0.26555386185646057,0.2852807343006134,0.2701062262058258,0.27617603540420527,0.27617603540420527,0.2731411159038544,0.2716236710548401,0.2716236710548401,0.0,0.0,0.0,0.0,0.0,0.0,0.0,0.0,0.0,0.0,0.0,0.0,0.0,0.0,0.0,0.0,0.0,0.0,0.0,0.0,0.0,0.0,0.0,0.0,0.0,0.0,0.0,0.0,0.0,0.0,0.0,0.0,0.0,0.0,2.0
0.8866498470306396,0.7884131073951721,0.16372795403003693,0.0,0.09823677688837053,0.21410579979419708,0.20906801521778104,0.241813600063324,0.22670024633407593,0.23425692319869995,0.23425692319869995,0.251889169216156,0.27204030752182007,0.2745591998100281,0.2795969843864441,0.29722923040390015,0.28967255353927607,0.32997480034828186,0.32997480034828186,0.362720400094986,0.372795969247818,0.41561713814735407,0.4181360304355621,0.44584381580352783,0.4408060312271118,0.46095716953277593,0.4534004926681519,0.46095716953277593,0.43576827645301813,0.42821159958839417,0.41309824585914606,0.3879093229770661,0.3476070463657379,0.3476070463657379,0.32745590806007385,0.32997480034828186,0.31234258413314814,0.3173803389072418,0.2997481226921081,0.31989923119544983,0.30226701498031616,0.32745590806007385,0.30478590726852417,0.3148614466190338,0.3173803389072418,0.32745590806007385,0.31989923119544983,0.3350125849246979,0.32493701577186584,0.3400503695011139,0.3400503695011139,0.37027707695961,0.35516372323036194,0.375314861536026,0.375314861536026,0.377833753824234,0.36020150780677795,0.365239292383194,0.3350125849246979,0.3476070463657379,0.3400503695011139,0.3400503695011139,0.3098236918449402,0.3173803389072418,0.31234258413314814,0.3450881540775299,0.31989923119544983,0.3324936926364898,0.3148614466190338,0.2997481226921081,0.3148614466190338,0.503778338432312,0.8866498470306396,1.0,0.44584381580352783,0.04282115772366524,0.14609572291374207,0.2745591998100281,0.2997481226921081,0.3375314772129059,0.32745590806007385,0.3350125849246979,0.3375314772129059,0.3476070463657379,0.3425692617893219,0.352644830942154,0.35768261551856995,0.367758184671402,0.0,0.0,0.0,0.0,0.0,0.0,0.0,0.0,0.0,0.0,0.0,0.0,0.0,0.0,0.0,0.0,0.0,0.0,0.0,0.0,0.0,0.0,0.0,0.0,0.0,0.0,0.0,0.0,0.0,0.0,0.0,0.0,0.0,0.0,0.0,0.0,0.0,0.0,0.0,0.0,0.0,0.0,0.0,0.0,0.0,0.0,0.0,0.0,0.0,0.0,0.0,0.0,0.0,0.0,0.0,0.0,0.0,0.0,0.0,0.0,0.0,0.0,0.0,0.0,0.0,0.0,0.0,0.0,0.0,0.0,0.0,0.0,0.0,0.0,0.0,0.0,0.0,0.0,0.0,0.0,0.0,0.0,0.0,0.0,0.0,0.0,0.0,0.0,0.0,0.0,0.0,0.0,0.0,0.0,0.0,0.0,0.0,0.0,0.0,0.0
1.0,0.8142856955528259,0.25999999046325684,0.025714285671710968,0.059999998658895486,0.0714285746216774,0.031428571790456765,0.0,0.019999999552965164,0.037142857909202576,0.014285714365541933,0.0057142856530845165,0.017142856493592262,0.028571428731083866,0.034285712987184525,0.025714285671710968,0.031428571790456765,0.045714285224676125,0.03999999910593033,0.037142857909202576,0.04285714402794837,0.059999998658895486,0.05428571254014969,0.059999998658895486,0.05428571254014969,0.0657142847776413,0.07428571581840515,0.0714285746216774,0.08285713940858841,0.0657142847776413,0.07714285701513289,0.09714286029338835,0.11999999731779099,0.13428571820259094,0.12285714596509932,0.11999999731779099,0.11999999731779099,0.11999999731779099,0.10571428388357162,0.09714286029338835,0.10857142508029936,0.11428571492433548,0.10571428388357162,0.09142857044935225,0.10857142508029936,0.11714285612106325,0.11428571492433548,0.10571428388357162,0.08571428805589677,0.11142857372760771,0.10571428388357162,0.10000000149011612,0.09714286029338835,0.11999999731779099,0.11428571492433548,0.09142857044935225,0.10000000149011612,0.11714285612106325,0.1257142871618271,0.13428571820259094,0.1542857140302658,0.16285714507102966,0.18000000715255737,0.1971428543329239,0.1971428543329239,0.2085714340209961,0.18857142329216003,0.1428571492433548,0.11714285612106325,0.10571428388357162,0.09142857044935225,0.0714285746216774,0.0714285746216774,0.08857142925262451,0.09142857044935225,0.051428571343421936,0.0657142847776413,0.2342857122421265,0.5742856860160828,0.9514285922050477,0.9685714244842528,0.5257142782211304,0.11142857372760771,0.031428571790456765,0.08571428805589677,0.0657142847776413,0.037142857909202576,0.034285712987184525,0.031428571790456765,0.031428571790456765,0.025714285671710968,0.019999999552965164,0.031428571790456765,0.037142857909202576,0.028571428731083866,0.0,0.0,0.0,0.0,0.0,0.0,0.0,0.0,0.0,0.0,0.0,0.0,0.0,0.0,0.0,0.0,0.0,0.0,0.0,0.0,0.0,0.0,0.0,0.0,0.0,0.0,0.0,0.0,0.0,0.0,0.0,0.0,0.0,0.0,0.0,0.0,0.0,0.0,0.0,0.0,0.0,0.0,0.0,0.0,0.0,0.0,0.0,0.0,0.0,0.0,0.0,0.0,0.0,0.0,0.0,0.0,0.0,0.0,0.0,0.0,0.0,0.0,0.0,0.0,0.0,0.0,0.0,0.0,0.0,0.0,0.0,0.0,0.0,0.0,0.0,0.0,0.0,0.0,0.0,0.0,0.0,0.0,0.0,0.0,0.0,0.0,0.0,0.0,0.0,0.0,0.0,0.0,0.0
0.8771121501922606,0.9600614309310912,0.5145929455757141,0.0,0.22580644488334653,0.35483869910240173,0.3486943244934082,0.3579109013080597,0.35330259799957275,0.3364055156707764,0.33794161677360535,0.3425499200820923,0.3425499200820923,0.33794161677360535,0.3425499200820923,0.35330259799957275,0.35176652669906616,0.3502304255962372,0.35176652669906616,0.3671275079250336,0.3671275079250336,0.36866360902786255,0.37634408473968506,0.37634408473968506,0.3855606615543365,0.38402459025383,0.3886328637599945,0.3978494703769684,0.39938557147979736,0.4024577438831329,0.4147465527057648,0.43932411074638367,0.4531489908695221,0.45622119307518005,0.462365597486496,0.4531489908695221,0.43778800964355463,0.41781875491142273,0.4116743505001068,0.40860214829444885,0.39938557147979736,0.39170506596565247,0.39170506596565247,0.39938557147979736,0.39631336927413935,0.39324116706848145,0.3947772681713104,0.39631336927413935,0.4009216725826264,0.3947772681713104,0.3886328637599945,0.3947772681713104,0.39016896486282343,0.380952388048172,0.382488489151001,0.382488489151001,0.3732718825340271,0.3671275079250336,0.3625192046165466,0.3640553057193756,0.3563748002052307,0.3486943244934082,0.34562212228775024,0.35176652669906616,0.3486943244934082,0.3410138189792633,0.3471582233905792,0.3471582233905792,0.34562212228775024,0.3364055156707764,0.3364055156707764,0.34408602118492126,0.3425499200820923,0.33794161677360535,0.3410138189792633,0.34408602118492126,0.33794161677360535,0.3348694443702698,0.3348694443702698,0.3364055156707764,0.3364055156707764,0.3317972421646118,0.33794161677360535,0.3410138189792633,0.3394777178764343,0.3317972421646118,0.3333333432674408,0.3410138189792633,0.33794161677360535,0.3333333432674408,0.3333333432674408,0.3410138189792633,0.3364055156707764,0.3317972421646118,0.3333333432674408,0.3348694443702698,0.3410138189792633,0.3317972421646118,0.3364055156707764,0.3425499200820923,0.3364055156707764,0.3333333432674408,0.33794161677360535,0.34408602118492126,0.3410138189792633,0.34408602118492126,0.3410138189792633,0.3502304255962372,0.3579109013080597,0.3640553057193756,0.37173578143119806,0.377880185842514,0.37173578143119806,0.36559140682220453,0.3640553057193756,0.37019968032836914,0.3625192046165466,0.3486943244934082,0.34408602118492126,0.35330259799957275,0.3563748002052307,0.3625192046165466,0.4009216725826264,0.5745007395744324,0.9016897082328796,1.0,0.5883256793022156,0.0860215052962303,0.19508448243141172,0.30721965432167053,0.29800307750701904,0.3317972421646118,0.3333333432674408,0.31797236204147333,0.3271889388561249,0.3333333432674408,0.3348694443702698,0.3317972421646118,0.3425499200820923,0.3502304255962372,0.3471582233905792,0.3471582233905792,0.35330259799957275,0.3640553057193756,0.3640553057193756,0.3640553057193756,0.3671275079250336,0.0,0.0,0.0,0.0,0.0,0.0,0.0,0.0,0.0,0.0,0.0,0.0,0.0,0.0,0.0,0.0,0.0,0.0,0.0,0.0,0.0,0.0,0.0,0.0,0.0,0.0,0.0,0.0,0.0,0.0,0.0,0.0,0.0,0.0,0.0,0.0,0.0,0.0,0.0,0.0,1.0
0.9649122953414917,0.8847118020057678,0.6591478586196899,0.26817041635513306,0.13283208012580872,0.17543859779834747,0.13784460723400116,0.08020050078630446,0.06265664100646973,0.06766917556524277,0.07268170267343521,0.09022556245326996,0.08270676434040068,0.07518796622753142,0.08270676434040068,0.08771929889917372,0.08771929889917372,0.09273182600736618,0.09774436056613922,0.10526315867900848,0.09523809701204303,0.1077694222331047,0.12280701845884325,0.12280701845884325,0.12781955301761627,0.12531328201293945,0.14786967635154724,0.14536340534687042,0.1428571492433548,0.13784460723400116,0.1679197996854782,0.1553884744644165,0.15789473056793213,0.15288220345973969,0.17293232679367063,0.15789473056793213,0.15037593245506287,0.14035087823867795,0.16290727257728577,0.13784460723400116,0.14536340534687042,0.12781955301761627,0.14786967635154724,0.12781955301761627,0.12280701845884325,0.10275689512491226,0.11278195679187775,0.09523809701204303,0.09774436056613922,0.08270676434040068,0.10275689512491226,0.09774436056613922,0.10025062412023544,0.07769423723220825,0.11278195679187775,0.10526315867900848,0.11278195679187775,0.10025062412023544,0.12280701845884325,0.1177944839000702,0.1177944839000702,0.12280701845884325,0.1553884744644165,0.15789473056793213,0.1679197996854782,0.1929824501276016,0.240601509809494,0.23308271169662476,0.22807016968727112,0.21052631735801697,0.21303258836269376,0.1929824501276016,0.15288220345973969,0.11528822034597395,0.13032580912113187,0.10275689512491226,0.09774436056613922,0.09774436056613922,0.11528822034597395,0.10526315867900848,0.08270676434040068,0.0,0.06516290456056595,0.2882205545902252,0.591478705406189,0.8345864415168761,1.0,0.9573934674263,0.7869673967361449,0.3709273040294647,0.16040100157260895,0.1779448688030243,0.1679197996854782,0.07518796622753142,0.08020050078630446,0.06766917556524277,0.07518796622753142,0.06516290456056595,0.09774436056613922,0.08270676434040068,0.08020050078630446,0.06265664100646973,0.08270676434040068,0.08270676434040068,0.0,0.0,0.0,0.0,0.0,0.0,0.0,0.0,0.0,0.0,0.0,0.0,0.0,0.0,0.0,0.0,0.0,0.0,0.0,0.0,0.0,0.0,0.0,0.0,0.0,0.0,0.0,0.0,0.0,0.0,0.0,0.0,0.0,0.0,0.0,0.0,0.0,0.0,0.0,0.0,0.0,0.0,0.0,0.0,0.0,0.0,0.0,0.0,0.0,0.0,0.0,0.0,0.0,0.0,0.0,0.0,0.0,0.0,0.0,0.0,0.0,0.0,0.0,0.0,0.0,0.0,0.0,0.0,0.0,0.0,0.0,0.0,0.0,0.0,0.0,0.0,0.0,0.0,0.0,0.0,0.0,0.0,0.0,0.0
0.993311047554016,0.8812708854675294,0.4715718924999237,0.1822742521762848,0.22240802645683289,0.24414715170860288,0.21237458288669583,0.20735785365104675,0.21237458288669583,0.20234113931655884,0.1923076957464218,0.18896320462226868,0.18561872839927676,0.1806020140647888,0.1755852848291397,0.17224080860614777,0.16722407937049863,0.1538461595773697,0.1421404629945755,0.14381271600723267,0.15050166845321655,0.14548495411872864,0.13377925753593445,0.13210701942443848,0.1254180669784546,0.11538461595773696,0.10033445060253143,0.08862876147031784,0.0802675560116768,0.060200668871402734,0.03678929805755615,0.01839464902877808,0.015050167217850683,0.0033444815780967474,0.0,0.023411370813846588,0.0568561889231205,0.09197324514389038,0.1304347813129425,0.16722407937049863,0.19565217196941373,0.21404682099819183,0.2157190591096878,0.23411370813846588,0.24414715170860288,0.24080267548561096,0.237458199262619,0.24080267548561096,0.24581940472126007,0.23913043737411496,0.229096993803978,0.23076923191547397,0.24247491359710693,0.24247491359710693,0.23578594624996185,0.24080267548561096,0.2541806101799011,0.25752508640289307,0.24414715170860288,0.24749164283275604,0.2558528482913971,0.2541806101799011,0.249163880944252,0.249163880944252,0.2541806101799011,0.24414715170860288,0.23913043737411496,0.24749164283275604,0.25250837206840515,0.24581940472126007,0.24247491359710693,0.2508361339569092,0.25250837206840515,0.25250837206840515,0.24247491359710693,0.24581940472126007,0.24581940472126007,0.24080267548561096,0.237458199262619,0.23411370813846588,0.23578594624996185,0.23076923191547397,0.23076923191547397,0.23411370813846588,0.24414715170860288,0.23913043737411496,0.227424755692482,0.229096993803978,0.23411370813846588,0.23411370813846588,0.2257525026798248,0.23076923191547397,0.237458199262619,0.24247491359710693,0.24247491359710693,0.24247491359710693,0.2541806101799011,0.2508361339569092,0.24414715170860288,0.24247491359710693,0.24080267548561096,0.237458199262619,0.227424755692482,0.227424755692482,0.2324414700269699,0.2324414700269699,0.229096993803978,0.229096993803978,0.237458199262619,0.23578594624996185,0.23076923191547397,0.23578594624996185,0.24581940472126007,0.24581940472126007,0.24414715170860288,0.24581940472126007,0.25250837206840515,0.2541806101799011,0.24749164283275604,0.24749164283275604,0.24749164283275604,0.2257525026798248,0.237458199262619,0.4297658801078796,0.7424749135971069,1.0,0.9983277320861816,0.6906354427337646,0.24080267548561096,0.1822742521762848,0.2324414700269699,0.2107023447751999,0.2040133774280548,0.20735785365104675,0.19397993385791776,0.19063545763492584,0.19732441008090967,0.18561872839927676,0.17892976105213165,0.17725752294063568,0.1755852848291397,0.16053511202335355,0.14548495411872864,0.14046822488307953,0.0,0.0,0.0,0.0,0.0,0.0,0.0,0.0,0.0,0.0,0.0,0.0,0.0,0.0,0.0,0.0,0.0,0.0,0.0,0.0,0.0,0.0,0.0,0.0,0.0,0.0,0.0,0.0,0.0,0.0,0.0,0.0,0.0,0.0,0.0,0.0,0.0,0.0,0.0,0.0,0.0,0.0,0.0,0.0
1.0,0.9025578498840333,0.4348355531692505,0.0,0.1973203420639038,0.20584653317928317,0.12911084294319153,0.12911084294319153,0.13885505497455597,0.12911084294319153,0.13520097732543945,0.13520097732543945,0.13763703405857086,0.1473812460899353,0.1473812460899353,0.15225334465503693,0.15834347903728485,0.16321559250354767,0.16565164923667908,0.17539586126804352,0.18148599565029144,0.1973203420639038,0.20950061082839963,0.2289890348911285,0.25700366497039795,0.2667478621006012,0.2801461517810821,0.292326420545578,0.30694276094436646,0.31546893715858454,0.3142509162425995,0.3130328953266144,0.2935444712638855,0.25456759333610535,0.22655297815799716,0.20341047644615173,0.18148599565029144,0.16199755668640137,0.13763703405857086,0.1315468996763229,0.13520097732543945,0.13032886385917664,0.12180268019437789,0.1230207085609436,0.12789280712604523,0.1205846518278122,0.1242387369275093,0.13763703405857086,0.13763703405857086,0.12667478621006012,0.1242387369275093,0.13398294150829315,0.13763703405857086,0.1315468996763229,0.12789280712604523,0.12789280712604523,0.12911084294319153,0.1315468996763229,0.1242387369275093,0.1230207085609436,0.12789280712604523,0.125456765294075,0.11936662346124648,0.11449451744556428,0.12180268019437789,0.1230207085609436,0.11814860254526138,0.11814860254526138,0.1315468996763229,0.1205846518278122,0.11936662346124648,0.13398294150829315,0.1473812460899353,0.14250913262367249,0.14007307589054108,0.1546894013881683,0.1705237478017807,0.1705237478017807,0.1546894013881683,0.1546894013881683,0.15347138047218323,0.13885505497455597,0.125456765294075,0.11449451744556428,0.11693057417869568,0.12180268019437789,0.11449451744556428,0.11936662346124648,0.13032886385917664,0.13885505497455597,0.22655297815799716,0.4494518935680389,0.7527405619621277,0.9439707398414611,0.8721072077751159,0.443361759185791,0.008526187390089035,0.125456765294075,0.18879415094852448,0.146163210272789,0.14250913262367249,0.13520097732543945,0.13276492059230804,0.14129111170768735,0.1510353237390518,0.146163210272789,0.1510353237390518,0.16443361341953275,0.17904993891716003,0.171741783618927,0.1729598045349121,0.1900121867656708,0.0,0.0,0.0,0.0,0.0,0.0,0.0,0.0,0.0,0.0,0.0,0.0,0.0,0.0,0.0,0.0,0.0,0.0,0.0,0.0,0.0,0.0,0.0,0.0,0.0,0.0,0.0,0.0,0.0,0.0,0.0,0.0,0.0,0.0,0.0,0.0,0.0,0.0,0.0,0.0,0.0,0.0,0.0,0.0,0.0,0.0,0.0,0.0,0.0,0.0,0.0,0.0,0.0,0.0,0.0,0.0,0.0,0.0,0.0,0.0,0.0,0.0,0.0,0.0,0.0,0.0,0.0,0.0,0.0,0.0,0.0,0.0,0.0,0.0,0.0,0.0
1.0,0.9105145335197448,0.6935123205184937,0.3758389353752136,0.16778524219989777,0.13870246708393097,0.08948545902967453,0.060402683913707726,0.02684563770890236,0.033557046204805374,0.02684563770890236,0.02684563770890236,0.015659954398870468,0.02460850030183792,0.031319908797740936,0.046979866921901696,0.060402683913707726,0.07606264203786851,0.08501118421554565,0.11409395933151244,0.13199105858802795,0.14765100181102753,0.17673377692699432,0.19015659391880035,0.20134228467941284,0.20134228467941284,0.2125279605388641,0.20134228467941284,0.18568232655525208,0.17449665069580078,0.15883669257164,0.14541387557983398,0.1409395933151245,0.13870246708393097,0.12527963519096375,0.10961968451738356,0.10514541715383528,0.10067114233970642,0.09619686752557753,0.1163310930132866,0.10514541715383528,0.10738255083560944,0.10514541715383528,0.11856823414564133,0.10067114233970642,0.11409395933151244,0.11856823414564133,0.1163310930132866,0.11409395933151244,0.10738255083560944,0.09619686752557753,0.10067114233970642,0.09172259271144867,0.09843400120735168,0.0827740505337715,0.08724832534790039,0.08053690940141676,0.07829977571964264,0.07829977571964264,0.07829977571964264,0.07158836722373961,0.07606264203786851,0.06263981759548187,0.08053690940141676,0.06711409240961075,0.06711409240961075,0.06935123354196548,0.08053690940141676,0.07158836722373961,0.06487695872783661,0.06263981759548187,0.07158836722373961,0.060402683913707726,0.06263981759548187,0.07158836722373961,0.08948545902967453,0.08053690940141676,0.07606264203786851,0.0827740505337715,0.06935123354196548,0.07606264203786851,0.07382550090551376,0.06935123354196548,0.07606264203786851,0.0827740505337715,0.07606264203786851,0.09172259271144867,0.09619686752557753,0.09619686752557753,0.11409395933151244,0.11409395933151244,0.10961968451738356,0.1297539174556732,0.19910514354705808,0.2639821171760559,0.3400447368621826,0.35346755385398865,0.4966442883014679,0.5950782895088196,0.6689038276672363,0.6174496412277222,0.4653243720531464,0.2170022428035736,0.07606264203786851,0.05145413801074028,0.031319908797740936,0.015659954398870468,0.011185682378709316,0.004474272951483727,0.0,0.011185682378709316,0.008948545902967453,0.011185682378709316,0.0,0.0,0.0,0.0,0.0,0.0,0.0,0.0,0.0,0.0,0.0,0.0,0.0,0.0,0.0,0.0,0.0,0.0,0.0,0.0,0.0,0.0,0.0,0.0,0.0,0.0,0.0,0.0,0.0,0.0,0.0,0.0,0.0,0.0,0.0,0.0,0.0,0.0,0.0,0.0,0.0,0.0,0.0,0.0,0.0,0.0,0.0,0.0,0.0,0.0,0.0,0.0,0.0,0.0,0.0,0.0,0.0,0.0,0.0,0.0,0.0,0.0,0.0,0.0,0.0,0.0,0.0,0.0,0.0,0.0,0.0,0.0,0.0,0.0,0.0
0.995670974254608,0.8095238208770752,0.4184704124927521,0.11399711668491364,0.0,0.059163060039281845,0.13708513975143433,0.1341991275548935,0.10245310515165328,0.10678210854530334,0.10822510719299316,0.10533910244703291,0.10533910244703291,0.09523809701204303,0.10245310515165328,0.11688311398029327,0.11399711668491364,0.12554112076759338,0.14574314653873444,0.15728715062141418,0.17748917639255524,0.18614718317985532,0.21789321303367612,0.2510822415351868,0.27417027950286865,0.29148629307746887,0.32178932428359985,0.35209235548973083,0.3780663907527924,0.38961037993431086,0.40548339486122126,0.4126984179019928,0.39826840162277216,0.3924964070320129,0.380952388048172,0.3564213514328003,0.3290043175220489,0.30447331070899963,0.27994227409362793,0.2698412835597992,0.2525252401828766,0.2236652225255966,0.22799423336982727,0.22799423336982727,0.23088023066520688,0.23232322931289673,0.2380952388048172,0.26406925916671753,0.2857142984867096,0.30447331070899963,0.3290043175220489,0.32611832022666926,0.32034632563591003,0.2828282713890076,0.2352092415094376,0.22799423336982727,0.22799423336982727,0.21789321303367612,0.2222222238779068,0.22655121982097623,0.22510822117328644,0.22510822117328644,0.21212121844291687,0.20490621030330655,0.2669552564620972,0.5223665237426758,0.8845598697662354,1.0,0.7373737096786499,0.3795093894004822,0.11544011533260344,0.07215007394552231,0.16450215876102448,0.160173162817955,0.13275612890720367,0.13708513975143433,0.12987013161182404,0.1269841343164444,0.11688311398029327,0.11544011533260344,0.0,0.0,0.0,0.0,0.0,0.0,0.0,0.0,0.0,0.0,0.0,0.0,0.0,0.0,0.0,0.0,0.0,0.0,0.0,0.0,0.0,0.0,0.0,0.0,0.0,0.0,0.0,0.0,0.0,0.0,0.0,0.0,0.0,0.0,0.0,0.0,0.0,0.0,0.0,0.0,0.0,0.0,0.0,0.0,0.0,0.0,0.0,0.0,0.0,0.0,0.0,0.0,0.0,0.0,0.0,0.0,0.0,0.0,0.0,0.0,0.0,0.0,0.0,0.0,0.0,0.0,0.0,0.0,0.0,0.0,0.0,0.0,0.0,0.0,0.0,0.0,0.0,0.0,0.0,0.0,0.0,0.0,0.0,0.0,0.0,0.0,0.0,0.0,0.0,0.0,0.0,0.0,0.0,0.0,0.0,0.0,0.0,0.0,0.0,0.0,0.0,0.0,0.0,0.0,0.0,0.0,0.0,0.0
0.0,0.060150377452373505,0.19360902905464167,0.3233082592487335,0.43233081698417664,0.5206766724586487,0.548872172832489,0.5902255773544312,0.6052631735801697,0.6748120188713074,0.7462406158447266,0.8045112490653991,0.8233082890510558,0.8421052694320679,0.8552631735801696,0.8759398460388182,0.9022556543350221,0.9248120188713072,0.9436089992523192,0.962406039237976,0.9755638837814333,0.9849624037742615,0.9924812316894531,1.0,0.9906014800071715,0.9943609237670897,0.9718044996261597,0.962406039237976,0.9360902309417725,0.9191729426383971,0.8890977501869202,0.8515037298202514,0.8270676732063292,0.8026315569877625,0.7819548845291138,0.7593985199928284,0.7368420958518982,0.7368420958518982,0.7199248075485228,0.7274436354637147,0.7274436354637147,0.7387217879295349,0.7236841917037965,0.7236841917037965,0.7274436354637147,0.7180451154708862,0.7030075192451477,0.7218044996261597,0.7124060392379761,0.7142857313156128,0.701127827167511,0.7030075192451477,0.7105262875556946,0.701127827167511,0.7105262875556946,0.7105262875556946,0.0,0.0,0.0,0.0,0.0,0.0,0.0,0.0,0.0,0.0,0.0,0.0,0.0,0.0,0.0,0.0,0.0,0.0,0.0,0.0,0.0,0.0,0.0,0.0,0.0,0.0,0.0,0.0,0.0,0.0,0.0,0.0,0.0,0.0,0.0,0.0,0.0,0.0,0.0,0.0,0.0,0.0,0.0,0.0,0.0,0.0,0.0,0.0,0.0,0.0,0.0,0.0,0.0,0.0,0.0,0.0,0.0,0.0,0.0,0.0,0.0,0.0,0.0,0.0,0.0,0.0,0.0,0.0,0.0,0.0,0.0,0.0,0.0,0.0,0.0,0.0,0.0,0.0,0.0,0.0,0.0,0.0,0.0,0.0,0.0,0.0,0.0,0.0,0.0,0.0,0.0,0.0,0.0,0.0,0.0,0.0,0.0,0.0,0.0,0.0,0.0,0.0,0.0,0.0,0.0,0.0,0.0,0.0,0.0,0.0,0.0,0.0,0.0,0.0,0.0,0.0,0.0,0.0,0.0,0.0,0.0,0.0,0.0,0.0,0.0,0.0,0.0,0.0,0.0,0.0,0.0,2.0
0.9886363744735716,0.7869318127632141,0.5227272510528564,0.3636363744735718,0.25284090638160706,0.15909090638160703,0.07386363297700883,0.017045455053448677,0.0,0.005681818351149559,0.008522727526724337,0.02556818164885044,0.02556818164885044,0.03125,0.01988636329770088,0.04261363670229912,0.028409091755747795,0.05113636329770088,0.03977272659540176,0.05681818351149559,0.034090910106897354,0.03693181648850441,0.04261363670229912,0.05397727340459824,0.05397727340459824,0.0625,0.07386363297700883,0.08238636702299118,0.09943182021379472,0.125,0.14772726595401764,0.17613635957241058,0.19318181276321408,0.21022726595401764,0.21022726595401764,0.21022726595401764,0.19318181276321408,0.18465909361839292,0.17613635957241058,0.1619318127632141,0.1505681872367859,0.15625,0.14772726595401764,0.1505681872367859,0.1363636404275894,0.1505681872367859,0.13920454680919647,0.1363636404275894,0.14204545319080353,0.14204545319080353,0.14488635957241058,0.14204545319080353,0.13920454680919647,0.14488635957241058,0.1306818127632141,0.13352273404598236,0.11931817978620528,0.1363636404275894,0.1363636404275894,0.1363636404275894,0.1306818127632141,0.13920454680919647,0.13352273404598236,0.14204545319080353,0.16477273404598236,0.18465909361839292,0.17897726595401764,0.20738635957241056,0.22443181276321408,0.25568181276321406,0.24147726595401764,0.22443181276321408,0.1818181872367859,0.11363636702299118,0.1051136329770088,0.1051136329770088,0.09375,0.10795454680919649,0.1051136329770088,0.11079545319080351,0.11931817978620528,0.13920454680919647,0.125,0.13352273404598236,0.1818181872367859,0.4460227191448212,0.7840909361839294,1.0,0.8125,0.5738636255264281,0.46590909361839294,0.28125,0.15909090638160703,0.09375,0.02556818164885044,0.02556818164885044,0.017045455053448677,0.028409091755747795,0.02272727340459824,0.03977272659540176,0.03125,0.05113636329770088,0.06534090638160706,0.059659089893102646,0.05113636329770088,0.0,0.0,0.0,0.0,0.0,0.0,0.0,0.0,0.0,0.0,0.0,0.0,0.0,0.0,0.0,0.0,0.0,0.0,0.0,0.0,0.0,0.0,0.0,0.0,0.0,0.0,0.0,0.0,0.0,0.0,0.0,0.0,0.0,0.0,0.0,0.0,0.0,0.0,0.0,0.0,0.0,0.0,0.0,0.0,0.0,0.0,0.0,0.0,0.0,0.0,0.0,0.0,0.0,0.0,0.0,0.0,0.0,0.0,0.0,0.0,0.0,0.0,0.0,0.0,0.0,0.0,0.0,0.0,0.0,0.0,0.0,0.0,0.0,0.0,0.0,0.0,0.0,0.0,0.0,0.0,0.0,0.0,0.0
0.863874316215515,0.7748690843582153,0.41361257433891296,0.0,0.09424083679914473,0.20157067477703092,0.32460734248161316,0.34554973244667053,0.37434554100036627,0.3691099584102631,0.3848167657852173,0.38743454217910767,0.41884815692901606,0.4214659631252289,0.44764396548271174,0.4528795778751373,0.4842931926250458,0.4973821938037872,0.5445026159286499,0.5575916171073914,0.5890052318572998,0.5811518430709839,0.6178010702133179,0.6151832342147827,0.6335078477859497,0.6099476218223572,0.5994764566421509,0.5680628418922424,0.5471203923225403,0.5052356123924255,0.47643980383872986,0.4371727705001831,0.4214659631252289,0.3926701545715332,0.395287960767746,0.3795811533927917,0.38743454217910767,0.3691099584102631,0.37434554100036627,0.3664921522140503,0.3795811533927917,0.38219895958900446,0.39790576696395874,0.3900523483753204,0.4214659631252289,0.4267015755176544,0.44764396548271174,0.40837696194648737,0.4162303805351257,0.3848167657852173,0.39790576696395874,0.376963347196579,0.3795811533927917,0.37172773480415344,0.38219895958900446,0.3691099584102631,0.37434554100036627,0.3612565398216248,0.376963347196579,0.3664921522140503,0.376963347196579,0.37172773480415344,0.3795811533927917,0.3664921522140503,0.37172773480415344,0.3481675386428833,0.5418848395347595,0.8036649227142334,1.0,0.7905759215354918,0.3560209572315216,0.005235602147877216,0.18324607610702515,0.30104711651802063,0.3638743460178375,0.3691099584102631,0.395287960767746,0.395287960767746,0.4162303805351257,0.41099476814270014,0.43979057669639593,0.0,0.0,0.0,0.0,0.0,0.0,0.0,0.0,0.0,0.0,0.0,0.0,0.0,0.0,0.0,0.0,0.0,0.0,0.0,0.0,0.0,0.0,0.0,0.0,0.0,0.0,0.0,0.0,0.0,0.0,0.0,0.0,0.0,0.0,0.0,0.0,0.0,0.0,0.0,0.0,0.0,0.0,0.0,0.0,0.0,0.0,0.0,0.0,0.0,0.0,0.0,0.0,0.0,0.0,0.0,0.0,0.0,0.0,0.0,0.0,0.0,0.0,0.0,0.0,0.0,0.0,0.0,0.0,0.0,0.0,0.0,0.0,0.0,0.0,0.0,0.0,0.0,0.0,0.0,0.0,0.0,0.0,0.0,0.0,0.0,0.0,0.0,0.0,0.0,0.0,0.0,0.0,0.0,0.0,0.0,0.0,0.0,0.0,0.0,0.0,0.0,0.0,0.0,0.0,0.0,0.0,0.0
0.9982110857963562,0.8533094525337219,0.36493739485740656,0.13774597644805908,0.21109123528003687,0.22003577649593356,0.1806797832250595,0.1771019697189331,0.1788908839225769,0.1717352420091629,0.15563505887985227,0.1520572453737259,0.1449016034603119,0.13953489065170288,0.13237924873828888,0.13416816294193268,0.13595706224441528,0.13059033453464508,0.12164579331874847,0.12522360682487488,0.12522360682487488,0.11449015885591506,0.10196779668331146,0.09660107642412184,0.09838998317718506,0.08050089329481123,0.06440071761608124,0.046511627733707435,0.042933810502290726,0.03220035880804062,0.014311269856989384,0.0,0.0035778174642473455,0.014311269856989384,0.039355993270874016,0.08050089329481123,0.12522360682487488,0.14311270415782928,0.16279070079326627,0.1753130555152893,0.19856886565685272,0.20930232107639313,0.21109123528003687,0.21288014948368073,0.22361359000205996,0.22719141840934756,0.2254025042057037,0.22361359000205996,0.23076923191547397,0.2289803177118301,0.22719141840934756,0.22003577649593356,0.2254025042057037,0.22719141840934756,0.22182469069957733,0.20930232107639313,0.21645796298980713,0.20930232107639313,0.20572450757026672,0.21288014948368073,0.2325581461191177,0.2361359596252441,0.2325581461191177,0.2361359596252441,0.24329158663749692,0.24865831434726715,0.24329158663749692,0.23971377313137052,0.24508050084114075,0.24508050084114075,0.24150268733501437,0.23434704542160037,0.24150268733501437,0.23971377313137052,0.2325581461191177,0.23076923191547397,0.2254025042057037,0.21466904878616333,0.3005366623401642,0.5438282489776611,0.8586761951446533,1.0,0.8783541917800902,0.44722718000411993,0.16815742850303647,0.20572450757026672,0.2254025042057037,0.1967799663543701,0.19141323864459991,0.1842575967311859,0.1717352420091629,0.16279070079326627,0.16279070079326627,0.1574239730834961,0.1484794318675995,0.14132378995418549,0.1449016034603119,0.0,0.0,0.0,0.0,0.0,0.0,0.0,0.0,0.0,0.0,0.0,0.0,0.0,0.0,0.0,0.0,0.0,0.0,0.0,0.0,0.0,0.0,0.0,0.0,0.0,0.0,0.0,0.0,0.0,0.0,0.0,0.0,0.0,0.0,0.0,0.0,0.0,0.0,0.0,0.0,0.0,0.0,0.0,0.0,0.0,0.0,0.0,0.0,0.0,0.0,0.0,0.0,0.0,0.0,0.0,0.0,0.0,0.0,0.0,0.0,0.0,0.0,0.0,0.0,0.0,0.0,0.0,0.0,0.0,0.0,0.0,0.0,0.0,0.0,0.0,0.0,0.0,0.0,0.0,0.0,0.0,0.0,0.0,0.0,0.0,0.0,0.0,0.0,0.0,0.0,0.0
1.0,1.0,0.7330508232116699,0.3898304998874664,0.06355932354927063,0.0042372881434857845,0.16949152946472168,0.2330508530139923,0.31355932354927063,0.33474576473236084,0.33474576473236084,0.3601695001125336,0.33474576473236084,0.32203391194343567,0.32203391194343567,0.31779661774635315,0.3389830589294433,0.3262711763381958,0.32203391194343567,0.30084747076034546,0.31355932354927063,0.3389830589294433,0.31355932354927063,0.33474576473236084,0.31355932354927063,0.32203391194343567,0.33474576473236084,0.33474576473236084,0.3389830589294433,0.3305084705352783,0.3601695001125336,0.3601695001125336,0.36864405870437617,0.3813559412956238,0.3898304998874664,0.43644067645072937,0.41101694107055664,0.4576271176338196,0.45338982343673706,0.45338982343673706,0.4661017060279846,0.47881355881690973,0.5211864113807678,0.4661017060279846,0.49576270580291754,0.49576270580291754,0.47881355881690973,0.4872881472110748,0.4830508530139923,0.4703389704227448,0.4618644118309021,0.47457626461982727,0.4576271176338196,0.5042372941970825,0.41101694107055664,0.43644067645072937,0.41101694107055664,0.4322033822536469,0.40677964687347407,0.40677964687347407,0.402542382478714,0.4152542352676392,0.402542382478714,0.402542382478714,0.41101694107055664,0.4152542352676392,0.42372882366180414,0.42372882366180414,0.43644067645072937,0.42372882366180414,0.44067797064781195,0.44067797064781195,0.4661017060279846,0.4618644118309021,0.4618644118309021,0.4618644118309021,0.4703389704227448,0.47881355881690973,0.4661017060279846,0.4661017060279846,0.4703389704227448,0.4830508530139923,0.47457626461982727,0.4830508530139923,0.47457626461982727,0.47881355881690973,0.5042372941970825,0.4618644118309021,0.5042372941970825,0.5,0.5042372941970825,0.5338982939720154,0.5635592937469481,0.5805084705352783,0.6313559412956238,0.6525423526763916,0.6652542352676392,0.7076271176338196,0.6567796468734741,0.5593220591545105,0.47457626461982727,0.4449152648448944,0.45338982343673706,0.4576271176338196,0.44915252923965454,0.44915252923965454,0.44067797064781195,0.4618644118309021,0.4449152648448944,0.4449152648448944,0.45338982343673706,0.44067797064781195,0.43644067645072937,0.4576271176338196,0.44915252923965454,0.4576271176338196,0.6144067645072937,0.8050847649574279,0.8177965879440308,0.8601694703102112,0.944915235042572,0.9576271176338195,0.9194915294647216,0.6398305296897888,0.36864405870437617,0.07203389704227448,0.0,0.1525423675775528,0.20338982343673703,0.3305084705352783,0.35593220591545105,0.347457617521286,0.37288135290145874,0.37288135290145874,0.36864405870437617,0.35169491171836853,0.3262711763381958,0.35169491171836853,0.36864405870437617,0.3389830589294433,0.35169491171836853,0.35593220591545105,0.33474576473236084,0.36864405870437617,0.2881355881690979,0.3601695001125336,0.3601695001125336,0.3305084705352783,0.347457617521286,0.3601695001125336,0.36864405870437617,0.37288135290145874,0.3813559412956238,0.3983050882816314,0.0,0.0,0.0,0.0,0.0,0.0,0.0,0.0,0.0,0.0,0.0,0.0,0.0,0.0,0.0,0.0,0.0,0.0,0.0,0.0,0.0,0.0,0.0,0.0,0.0,0.0,0.0,0.0,0.0,0.0,0.0,0.0,0.0,0.0
1.0,0.8176637887954712,0.2934472858905792,0.0,0.0683760717511177,0.09686609357595444,0.056980058550834656,0.0655270665884018,0.045584045350551605,0.04273504391312599,0.03418803587555885,0.03133903071284294,0.0227920226752758,0.03988603875041008,0.028490029275417328,0.03418803587555885,0.017094017937779427,0.025641025975346565,0.0056980056688189515,0.037037037312984473,0.0227920226752758,0.03988603875041008,0.04273504391312599,0.0655270665884018,0.05128205195069313,0.07692307978868483,0.07692307978868483,0.09686609357595444,0.0883190855383873,0.10826210677623747,0.10256410390138626,0.12535612285137177,0.1111111119389534,0.1339031308889389,0.1339031308889389,0.16239316761493683,0.16239316761493683,0.1766381710767746,0.18803419172763824,0.19658119976520536,0.19088318943977356,0.19658119976520536,0.156695157289505,0.15954415500164032,0.14529915153980255,0.1367521435022354,0.11965811997652052,0.11965811997652052,0.10256410390138626,0.11396011710166933,0.10256410390138626,0.11396011710166933,0.10541310906410216,0.1111111119389534,0.09686609357595444,0.12535612285137177,0.10826210677623747,0.11965811997652052,0.1111111119389534,0.11965811997652052,0.09971509873867035,0.11965811997652052,0.10541310906410216,0.11396011710166933,0.10541310906410216,0.11396011710166933,0.09686609357595444,0.11396011710166933,0.10256410390138626,0.09686609357595444,0.07692307978868483,0.09971509873867035,0.0883190855383873,0.09686609357595444,0.09401709586381912,0.11680911481380463,0.0883190855383873,0.09971509873867035,0.10256410390138626,0.09971509873867035,0.0883190855383873,0.11680911481380463,0.09401709586381912,0.11396011710166933,0.17094017565250397,0.31908831000328064,0.6182336211204529,0.9971510171890258,0.94017094373703,0.4729344844818115,0.0113960113376379,0.05982905998826026,0.0911680907011032,0.07977207750082016,0.05128205195069313,0.04843304678797722,0.03133903071284294,0.05128205195069313,0.03988603875041008,0.05413105338811874,0.028490029275417328,0.04273504391312599,0.025641025975346565,0.037037037312984473,0.03133903071284294,0.0,0.0,0.0,0.0,0.0,0.0,0.0,0.0,0.0,0.0,0.0,0.0,0.0,0.0,0.0,0.0,0.0,0.0,0.0,0.0,0.0,0.0,0.0,0.0,0.0,0.0,0.0,0.0,0.0,0.0,0.0,0.0,0.0,0.0,0.0,0.0,0.0,0.0,0.0,0.0,0.0,0.0,0.0,0.0,0.0,0.0,0.0,0.0,0.0,0.0,0.0,0.0,0.0,0.0,0.0,0.0,0.0,0.0,0.0,0.0,0.0,0.0,0.0,0.0,0.0,0.0,0.0,0.0,0.0,0.0,0.0,0.0,0.0,0.0,0.0,0.0,0.0,0.0,0.0,0.0,0.0,0.0,0.0
1.0,0.7440119981765747,0.321856290102005,0.04491018131375313,0.03143712505698204,0.13323353230953217,0.12724551558494568,0.09131736308336258,0.0928143709897995,0.08982036262750626,0.071856290102005,0.07035928219556808,0.06586826592683792,0.06886227428913116,0.07335329055786131,0.071856290102005,0.0928143709897995,0.11227545142173768,0.128742516040802,0.15868262946605682,0.18862275779247284,0.2260479032993317,0.26796406507492065,0.29640719294548035,0.336826354265213,0.36826348304748535,0.39670658111572266,0.4176646769046784,0.4326347410678864,0.4416167736053466,0.4266467094421386,0.4176646769046784,0.4101796448230744,0.38922154903411865,0.3667664527893066,0.35329341888427734,0.329341322183609,0.30688622593879694,0.29041916131973267,0.2544910311698913,0.24101796746253967,0.23203593492507932,0.2095808386802673,0.2125748544931412,0.21407185494899747,0.22455090284347531,0.2514970004558563,0.264970064163208,0.29640719294548035,0.321856290102005,0.3203592896461487,0.28293412923812866,0.22904191911220553,0.2125748544931412,0.2095808386802673,0.1976047903299332,0.2065868228673935,0.21556885540485385,0.20209580659866333,0.208083838224411,0.21407185494899747,0.2125748544931412,0.20359280705451965,0.3233532905578613,0.628742516040802,0.9416167736053466,0.8622754216194154,0.507485032081604,0.18562874197959897,0.0,0.04341317340731621,0.12574850022792816,0.128742516040802,0.121257483959198,0.10628742724657057,0.09131736308336258,0.09131736308336258,0.09880239516496657,0.10179640352725983,0.0,0.0,0.0,0.0,0.0,0.0,0.0,0.0,0.0,0.0,0.0,0.0,0.0,0.0,0.0,0.0,0.0,0.0,0.0,0.0,0.0,0.0,0.0,0.0,0.0,0.0,0.0,0.0,0.0,0.0,0.0,0.0,0.0,0.0,0.0,0.0,0.0,0.0,0.0,0.0,0.0,0.0,0.0,0.0,0.0,0.0,0.0,0.0,0.0,0.0,0.0,0.0,0.0,0.0,0.0,0.0,0.0,0.0,0.0,0.0,0.0,0.0,0.0,0.0,0.0,0.0,0.0,0.0,0.0,0.0,0.0,0.0,0.0,0.0,0.0,0.0,0.0,0.0,0.0,0.0,0.0,0.0,0.0,0.0,0.0,0.0,0.0,0.0,0.0,0.0,0.0,0.0,0.0,0.0,0.0,0.0,0.0,0.0,0.0,0.0,0.0,0.0,0.0,0.0,0.0,0.0,0.0,0.0,0.0
0.9805285334587096,0.924895703792572,0.4381084740161896,0.0,0.207232266664505,0.28650903701782227,0.29902642965316767,0.3226703703403473,0.32406118512153625,0.32406118512153625,0.33101528882980347,0.33101528882980347,0.3324061334133148,0.33936023712158203,0.34214186668396,0.3449234962463379,0.3477051556110382,0.3546592593193054,0.36439499258995056,0.36161336302757263,0.36439499258995056,0.3713490962982178,0.38108482956886286,0.3866481184959412,0.38942977786064154,0.39221140742301935,0.4033379554748535,0.4033379554748535,0.4005563259124756,0.40890124440193176,0.4075104296207428,0.40194714069366455,0.40194714069366455,0.4061196148395538,0.415855348110199,0.4283727407455444,0.42976355552673334,0.4255911111831665,0.41724616289138794,0.4005563259124756,0.3838664889335632,0.37273991107940674,0.3699582815170288,0.36161336302757263,0.3518775999546051,0.3518775999546051,0.3588317036628723,0.3588317036628723,0.3560500741004944,0.36439499258995056,0.36856746673583984,0.3671766221523285,0.3741307258605957,0.3838664889335632,0.3908205926418304,0.3936022222042084,0.3866481184959412,0.3936022222042084,0.3963838517665863,0.3908205926418304,0.3838664889335632,0.38525730371475214,0.38108482956886286,0.376912385225296,0.36856746673583984,0.37273991107940674,0.3699582815170288,0.3560500741004944,0.35326841473579407,0.36161336302757263,0.36161336302757263,0.3560500741004944,0.3546592593193054,0.3546592593193054,0.3574408888816833,0.3546592593193054,0.3518775999546051,0.3518775999546051,0.35326841473579407,0.35048678517341614,0.3477051556110382,0.3490959703922272,0.3546592593193054,0.35048678517341614,0.3477051556110382,0.3490959703922272,0.3546592593193054,0.34631431102752686,0.3449234962463379,0.3490959703922272,0.3518775999546051,0.3574408888816833,0.3630041778087616,0.3741307258605957,0.3824756741523743,0.38803893327713007,0.38942977786064154,0.3741307258605957,0.3713490962982178,0.36856746673583984,0.3630041778087616,0.3546592593193054,0.3518775999546051,0.3490959703922272,0.35326841473579407,0.37273991107940674,0.4436717629432678,0.6981919407844543,1.0,0.8636995553970338,0.3296244740486145,0.06258692592382431,0.28233659267425537,0.3115438222885132,0.3226703703403473,0.3337969481945038,0.3157162666320801,0.32406118512153625,0.3324061334133148,0.33101528882980347,0.3337969481945038,0.34214186668396,0.3490959703922272,0.3546592593193054,0.3546592593193054,0.3560500741004944,0.3657858073711395,0.3699582815170288,0.3699582815170288,0.378303200006485,0.0,0.0,0.0,0.0,0.0,0.0,0.0,0.0,0.0,0.0,0.0,0.0,0.0,0.0,0.0,0.0,0.0,0.0,0.0,0.0,0.0,0.0,0.0,0.0,0.0,0.0,0.0,0.0,0.0,0.0,0.0,0.0,0.0,0.0,0.0,0.0,0.0,0.0,0.0,0.0,0.0,0.0,0.0,0.0,0.0,0.0,0.0,0.0,0.0,0.0,0.0,0.0,0.0,0.0,0.0,0.0,0.0,0.0
1.0,0.8752228021621704,0.2923351228237152,0.0,0.18538324534893036,0.26381462812423706,0.25846701860427856,0.27450981736183167,0.2923351228237152,0.28877004981040955,0.28342247009277344,0.2869875133037567,0.2959001660346985,0.2959001660346985,0.2905525863170624,0.2869875133037567,0.2905525863170624,0.29768270254135126,0.2869875133037567,0.2869875133037567,0.2994652390480041,0.30481284856796265,0.2905525863170624,0.2905525863170624,0.3065953552722931,0.3172905445098877,0.3137255012989044,0.31907308101654047,0.3386809229850769,0.35115864872932434,0.35115864872932434,0.3636363744735718,0.3868092596530914,0.40463459491729736,0.4099821746349335,0.4206773638725281,0.44385027885437006,0.4598930478096008,0.4563279747962952,0.4545454680919647,0.4545454680919647,0.4385026693344116,0.40819963812828064,0.38324421644210815,0.3672014176845551,0.35650622844696045,0.3368983864784241,0.324420690536499,0.3297682702541352,0.3262031972408294,0.31907308101654047,0.31550800800323486,0.31550800800323486,0.324420690536499,0.3208556175231933,0.3065953552722931,0.324420690536499,0.331550806760788,0.31907308101654047,0.31550800800323486,0.3279857337474823,0.3333333432674408,0.31907308101654047,0.32263815402984614,0.324420690536499,0.3333333432674408,0.3208556175231933,0.30481284856796265,0.3208556175231933,0.32263815402984614,0.31550800800323486,0.3065953552722931,0.3119429647922516,0.31016042828559875,0.3083778917789459,0.2994652390480041,0.3083778917789459,0.3119429647922516,0.3065953552722931,0.301247775554657,0.3065953552722931,0.3119429647922516,0.29411765933036804,0.29411765933036804,0.2994652390480041,0.29768270254135126,0.2869875133037567,0.2869875133037567,0.301247775554657,0.3065953552722931,0.29768270254135126,0.29411765933036804,0.301247775554657,0.3065953552722931,0.2959001660346985,0.2959001660346985,0.3030303120613098,0.3030303120613098,0.29411765933036804,0.2923351228237152,0.2959001660346985,0.29768270254135126,0.29411765933036804,0.28877004981040955,0.2959001660346985,0.3030303120613098,0.2994652390480041,0.29411765933036804,0.2994652390480041,0.3083778917789459,0.301247775554657,0.28877004981040955,0.2994652390480041,0.3083778917789459,0.2994652390480041,0.29768270254135126,0.3030303120613098,0.3119429647922516,0.3172905445098877,0.3262031972408294,0.3493761122226715,0.35472372174263,0.36007130146026606,0.35472372174263,0.35115864872932434,0.3493761122226715,0.34224599599838257,0.3262031972408294,0.3137255012989044,0.29768270254135126,0.2798573970794678,0.27450981736183167,0.27450981736183167,0.28342247009277344,0.27629232406616205,0.2691622078418732,0.27807486057281494,0.28342247009277344,0.270944744348526,0.2691622078418732,0.2869875133037567,0.2905525863170624,0.2852049767971039,0.2959001660346985,0.3297682702541352,0.4973261952400208,0.7504456043243408,0.9821746945381165,0.7682709693908691,0.21212121844291687,0.03030303120613098,0.1871657818555832,0.24242424964904785,0.26737967133522034,0.28342247009277344,0.2816399335861206,0.28342247009277344,0.28877004981040955,0.27629232406616205,0.270944744348526,0.28342247009277344,0.2869875133037567,0.2816399335861206,0.27807486057281494,0.2905525863170624,0.29411765933036804,0.28877004981040955,0.2869875133037567,0.2923351228237152,0.2959001660346985,0.29411765933036804,0.2905525863170624,0.3065953552722931,0.3137255012989044,0.0,0.0,0.0,0.0,0.0,0.0,0.0,0.0,0.0,0.0,0.0,0.0,0.0,0.0
0.9966666698455809,0.8899999856948851,0.550000011920929,0.1899999976158142,0.12666666507720947,0.07999999821186066,0.07999999821186066,0.05000000074505805,0.059999998658895486,0.046666666865348816,0.05000000074505805,0.029999999329447743,0.023333333432674408,0.0,0.019999999552965164,0.006666666828095913,0.029999999329447743,0.009999999776482582,0.019999999552965164,0.009999999776482582,0.029999999329447743,0.019999999552965164,0.036666665226221085,0.026666667312383648,0.059999998658895486,0.06666667014360428,0.09666666388511656,0.1066666692495346,0.12333333492279051,0.11666666716337204,0.1466666609048843,0.1366666704416275,0.12333333492279051,0.10999999940395357,0.13333334028720856,0.12666666507720947,0.14000000059604645,0.13333334028720856,0.1466666609048843,0.1366666704416275,0.17000000178813934,0.16333332657814023,0.1899999976158142,0.1733333319425583,0.18000000715255737,0.1599999964237213,0.17666666209697723,0.1599999964237213,0.17666666209697723,0.1366666704416275,0.15333333611488342,0.15000000596046448,0.16333332657814023,0.15333333611488342,0.1466666609048843,0.1299999952316284,0.1599999964237213,0.1599999964237213,0.1733333319425583,0.17666666209697723,0.22333332896232605,0.4266666769981384,0.699999988079071,0.9466666579246522,1.0,0.7766666412353516,0.3499999940395355,0.16333332657814023,0.09333333373069763,0.07666666805744171,0.06333333253860474,0.043333332985639565,0.046666666865348816,0.029999999329447743,0.0,0.0,0.0,0.0,0.0,0.0,0.0,0.0,0.0,0.0,0.0,0.0,0.0,0.0,0.0,0.0,0.0,0.0,0.0,0.0,0.0,0.0,0.0,0.0,0.0,0.0,0.0,0.0,0.0,0.0,0.0,0.0,0.0,0.0,0.0,0.0,0.0,0.0,0.0,0.0,0.0,0.0,0.0,0.0,0.0,0.0,0.0,0.0,0.0,0.0,0.0,0.0,0.0,0.0,0.0,0.0,0.0,0.0,0.0,0.0,0.0,0.0,0.0,0.0,0.0,0.0,0.0,0.0,0.0,0.0,0.0,0.0,0.0,0.0,0.0,0.0,0.0,0.0,0.0,0.0,0.0,0.0,0.0,0.0,0.0,0.0,0.0,0.0,0.0,0.0,0.0,0.0,0.0,0.0,0.0,0.0,0.0,0.0,0.0,0.0,0.0,0.0,0.0,0.0,0.0,0.0,0.0,0.0,0.0,0.0,0.0,0.0,0.0,0.0
0.8910464048385619,0.8327939510345459,0.7810140252113342,0.708737850189209,0.6181229948997498,0.5102481245994568,0.4012944996356964,0.28047466278076166,0.17367853224277496,0.11758360266685484,0.06796116381883621,0.020496224984526638,0.010787486098706722,0.07874865084886552,0.20280474424362183,0.27508091926574707,0.3247033357620239,0.3581445515155792,0.3754045367240906,0.4088457524776458,0.44983819127082814,0.49083063006401056,0.5339806079864502,0.582524299621582,0.6073355078697205,0.6213592290878296,0.6386191844940186,0.649406671524048,0.6699029207229614,0.6871628761291504,0.7011865973472595,0.7238403558731078,0.7421790957450866,0.7583603262901306,0.7842502593994141,0.8004314899444579,0.8133764863014221,0.8187702298164367,0.8176915049552916,0.8220064640045166,0.8252426981925964,0.8263214826583862,0.8317152261734008,0.8187702298164367,0.8004314899444579,0.7583603262901306,0.7173678278923035,0.6903991103172302,0.6601941585540771,0.6105717420578003,0.5782092809677124,0.5458468198776245,0.5210356116294861,0.491909384727478,0.485436886548996,0.4714131653308869,0.46170443296432495,0.45738941431045527,0.45846816897392273,0.45199567079544073,0.45415318012237543,0.44983819127082814,0.45091694593429565,0.44768068194389343,0.4530744254589081,0.44983819127082814,0.4563106894493103,0.44983819127082814,0.4563106894493103,0.45415318012237543,0.45846816897392273,0.4563106894493103,0.4606256783008576,0.45738941431045527,0.4563106894493103,0.4552319347858429,0.4606256783008576,0.45738941431045527,0.4606256783008576,0.4595469236373901,0.46278315782547,0.46278315782547,0.4681769013404846,0.46170443296432495,0.4703344106674194,0.46601942181587214,0.47357064485549927,0.4703344106674194,0.4778856635093689,0.47357064485549927,0.4778856635093689,0.4778856635093689,0.48112189769744873,0.48327940702438354,0.4875943958759308,0.49514561891555786,0.5059331059455872,0.5242718458175659,0.8036677241325377,1.0,0.9277238249778749,0.8694714307785033,0.8036677241325377,0.7303128242492675,0.6364616751670836,0.5102481245994568,0.36893203854560846,0.2286947071552277,0.14994606375694275,0.10140237212181091,0.06256742030382156,0.015102481469511984,0.0,0.06364616751670837,0.19848975539207456,0.29557713866233826,0.33764833211898804,0.3710895478725433,0.3894282579421997,0.43149945139884954,0.0,0.0,0.0,0.0,0.0,0.0,0.0,0.0,0.0,0.0,0.0,0.0,0.0,0.0,0.0,0.0,0.0,0.0,0.0,0.0,0.0,0.0,0.0,0.0,0.0,0.0,0.0,0.0,0.0,0.0,0.0,0.0,0.0,0.0,0.0,0.0,0.0,0.0,0.0,0.0,0.0,0.0,0.0,0.0,0.0,0.0,0.0,0.0,0.0,0.0,0.0,0.0,0.0,0.0,0.0,0.0,0.0,0.0,0.0,0.0,0.0,0.0,0.0,0.0,0.0,0.0,0.0,4.0
0.9708939790725709,0.8523908257484435,0.6569646596908569,0.4636174738407135,0.2453222423791885,0.0956340953707695,0.04158004000782967,0.031185030937194824,0.04158004000782967,0.05613305792212486,0.1039501056075096,0.12681913375854492,0.16008315980434415,0.17255717515945435,0.1850311905145645,0.17463617026805875,0.17879417538642883,0.17255717515945435,0.17463617026805875,0.16632016003131866,0.17463617026805875,0.15592515468597412,0.15800416469573975,0.147609144449234,0.1538461595773697,0.14968815445899963,0.15800416469573975,0.1621621549129486,0.1767151802778244,0.1829521805047989,0.2058212012052536,0.2162162214517593,0.234927237033844,0.2453222423791885,0.26819127798080444,0.2765072882175445,0.3035342991352081,0.3097712993621826,0.3326403200626373,0.3388773500919342,0.35550934076309204,0.3596673607826233,0.3659043610095978,0.3659043610095978,0.37422037124633784,0.36174637079238886,0.36382535099983215,0.3451143503189087,0.3471933603286743,0.3388773500919342,0.3534303605556488,0.3451143503189087,0.3471933603286743,0.34303534030914307,0.35550934076309204,0.3659043610095978,0.37422037124633784,0.36382535099983215,0.36382535099983215,0.35550934076309204,0.3596673607826233,0.3326403200626373,0.3014552891254425,0.2723492681980133,0.2598752677440644,0.2515592575073242,0.2577962577342987,0.2557172477245331,0.2661122679710388,0.2640332579612732,0.2598752677440644,0.2577962577342987,0.2661122679710388,0.2598752677440644,0.2723492681980133,0.2640332579612732,0.27442827820777893,0.27442827820777893,0.28274428844451904,0.27442827820777893,0.27442827820777893,0.24948024749755857,0.3534303605556488,0.5010395050048828,0.6216216087341309,0.7983368039131165,0.9604989886283873,1.0,0.9625779390335085,0.7442827224731445,0.5675675868988037,0.3097712993621826,0.13097712397575378,0.012474012561142445,0.0,0.0,0.03534303605556488,0.07068607211112976,0.10810811072587966,0.1330561339855194,0.1621621549129486,0.15800416469573975,0.1683991700410843,0.16008315980434415,0.1621621549129486,0.0,0.0,0.0,0.0,0.0,0.0,0.0,0.0,0.0,0.0,0.0,0.0,0.0,0.0,0.0,0.0,0.0,0.0,0.0,0.0,0.0,0.0,0.0,0.0,0.0,0.0,0.0,0.0,0.0,0.0,0.0,0.0,0.0,0.0,0.0,0.0,0.0,0.0,0.0,0.0,0.0,0.0,0.0,0.0,0.0,0.0,0.0,0.0,0.0,0.0,0.0,0.0,0.0,0.0,0.0,0.0,0.0,0.0,0.0,0.0,0.0,0.0,0.0,0.0,0.0,0.0,0.0,0.0,0.0,0.0,0.0,0.0,0.0,0.0,0.0,0.0,0.0,0.0,0.0,0.0,0.0,0.0,0.0
1.0,0.7063711881637573,0.2576177418231964,0.08033241331577301,0.07756232470273972,0.074792243540287,0.03878116235136986,0.01662049815058708,0.01662049815058708,0.01939058117568493,0.011080332100391388,0.013850415125489233,0.01662049815058708,0.022160664200782772,0.022160664200782772,0.033240996301174164,0.027700830250978466,0.01939058117568493,0.024930747225880623,0.03601108118891716,0.047091413289308555,0.03047091327607632,0.03601108118891716,0.05540166050195693,0.06648199260234833,0.06648199260234833,0.05263157933950424,0.06925208121538162,0.07756232470273972,0.060941826552152634,0.06371191143989563,0.0831024944782257,0.0969529077410698,0.10526315867900848,0.09418282657861708,0.11357340961694716,0.13019390404224396,0.12188365310430525,0.09141274541616441,0.0886426568031311,0.0886426568031311,0.0969529077410698,0.0886426568031311,0.0858725756406784,0.08033241331577301,0.0969529077410698,0.09418282657861708,0.0969529077410698,0.09141274541616441,0.09141274541616441,0.09141274541616441,0.11911357194185256,0.0969529077410698,0.08033241331577301,0.09972298890352248,0.10249307751655579,0.10803323984146118,0.09972298890352248,0.10803323984146118,0.11634349077939989,0.12465374171733856,0.14127424359321594,0.16343490779399872,0.19667589664459229,0.20775623619556427,0.18559557199478147,0.1745152324438095,0.16066482663154602,0.12465374171733856,0.0886426568031311,0.06371191143989563,0.06648199260234833,0.060941826552152634,0.06648199260234833,0.047091413289308555,0.027700830250978466,0.06925208121538162,0.2465374022722244,0.623268723487854,1.0,0.8947368264198302,0.39889195561409,0.06925208121538162,0.04155124723911285,0.06925208121538162,0.027700830250978466,0.008310249075293541,0.0,0.011080332100391388,0.013850415125489233,0.008310249075293541,0.013850415125489233,0.01939058117568493,0.005540166050195694,0.002770083025097847,0.022160664200782772,0.0,0.0,0.0,0.0,0.0,0.0,0.0,0.0,0.0,0.0,0.0,0.0,0.0,0.0,0.0,0.0,0.0,0.0,0.0,0.0,0.0,0.0,0.0,0.0,0.0,0.0,0.0,0.0,0.0,0.0,0.0,0.0,0.0,0.0,0.0,0.0,0.0,0.0,0.0,0.0,0.0,0.0,0.0,0.0,0.0,0.0,0.0,0.0,0.0,0.0,0.0,0.0,0.0,0.0,0.0,0.0,0.0,0.0,0.0,0.0,0.0,0.0,0.0,0.0,0.0,0.0,0.0,0.0,0.0,0.0,0.0,0.0,0.0,0.0,0.0,0.0,0.0,0.0,0.0,0.0,0.0,0.0,0.0,0.0,0.0,0.0,0.0,0.0,0.0,0.0,0.0,0.0
0.911819875240326,0.8236397504806519,0.45590993762016296,0.16885553300380707,0.19136960804462433,0.21763601899147036,0.19324578344821927,0.17823639512062073,0.172607883810997,0.16322702169418335,0.15759849548339844,0.15009380877017975,0.14446529746055603,0.14258912205696103,0.14258912205696103,0.13508442044258115,0.12570355832576752,0.1275797337293625,0.13508442044258115,0.1407129466533661,0.1463414579629898,0.1463414579629898,0.1463414579629898,0.1332082599401474,0.11819887161254881,0.11444652825593948,0.1069418415427208,0.08255159109830856,0.06754221022129059,0.054409004747867584,0.04502814263105392,0.01876172609627247,0.005628517828881741,0.0018761726096272469,0.0,0.005628517828881741,0.035647280514240265,0.07504690438508987,0.11819887161254881,0.13696059584617615,0.16322702169418335,0.19512194395065308,0.2138836830854416,0.2138836830854416,0.22138836979866028,0.22138836979866028,0.22138836979866028,0.2138836830854416,0.200750470161438,0.21013133227825165,0.2138836830854416,0.200750470161438,0.18386492133140564,0.18949343264102933,0.19512194395065308,0.20262664556503293,0.2138836830854416,0.22514070570468905,0.23264540731906888,0.22889305651187897,0.22889305651187897,0.23639774322509763,0.24390244483947757,0.23827391862869263,0.23076923191547397,0.23076923191547397,0.22889305651187897,0.22138836979866028,0.2120075076818466,0.21951219439506528,0.22138836979866028,0.21763601899147036,0.21013133227825165,0.21575984358787537,0.21763601899147036,0.21951219439506528,0.2138836830854416,0.22514070570468905,0.227016881108284,0.22138836979866028,0.21575984358787537,0.22138836979866028,0.22138836979866028,0.2120075076818466,0.20825515687465668,0.20637898147106168,0.20450282096862793,0.19324578344821927,0.18949343264102933,0.19512194395065308,0.20262664556503293,0.200750470161438,0.20637898147106168,0.2120075076818466,0.22514070570468905,0.22514070570468905,0.227016881108284,0.23264540731906888,0.23264540731906888,0.22326454520225525,0.21763601899147036,0.22514070570468905,0.23076923191547397,0.22326454520225525,0.21763601899147036,0.21763601899147036,0.21575984358787537,0.20825515687465668,0.20825515687465668,0.2120075076818466,0.20825515687465668,0.21013133227825165,0.21013133227825165,0.19512194395065308,0.20450282096862793,0.3639774918556213,0.6529080867767334,0.9437147974967955,1.0,0.8180112838745117,0.3133208155632019,0.12570355832576752,0.18949343264102933,0.19136960804462433,0.16885553300380707,0.17636021971702576,0.16885553300380707,0.15572232007980347,0.16135084629058835,0.16322702169418335,0.16135084629058835,0.15009380877017975,0.13696059584617615,0.0,0.0,0.0,0.0,0.0,0.0,0.0,0.0,0.0,0.0,0.0,0.0,0.0,0.0,0.0,0.0,0.0,0.0,0.0,0.0,0.0,0.0,0.0,0.0,0.0,0.0,0.0,0.0,0.0,0.0,0.0,0.0,0.0,0.0,0.0,0.0,0.0,0.0,0.0,0.0,0.0,0.0,0.0,0.0,0.0,0.0,0.0,0.0,0.0,0.0,0.0,0.0,0.0,0.0,0.0
1.0,0.9170507192611694,0.7373272180557251,0.48847925662994385,0.23963133990764615,0.10599078238010406,0.07373271882534027,0.09216590225696564,0.07373271882534027,0.08294931054115294,0.1105990782380104,0.10138248652219772,0.08294931054115294,0.12442396581172945,0.13824884593486783,0.11520737409591673,0.12903225421905515,0.13364055752754211,0.14746543765068054,0.1428571492433548,0.13364055752754211,0.14746543765068054,0.17050690948963165,0.17050690948963165,0.15668202936649323,0.1797235012054443,0.20276497304439545,0.20276497304439545,0.20276497304439545,0.2073732763528824,0.22580644488334653,0.23041474819183347,0.2073732763528824,0.21658986806869504,0.21198156476020807,0.188940092921257,0.1658986210823059,0.16129031777381897,0.14746543765068054,0.09677419066429138,0.07373271882534027,0.06912442296743393,0.06451612710952759,0.05990783497691154,0.05069124326109886,0.05069124326109886,0.07373271882534027,0.0552995391190052,0.04608295112848282,0.0552995391190052,0.07373271882534027,0.05069124326109886,0.018433179706335068,0.0552995391190052,0.05069124326109886,0.0276497695595026,0.009216589853167532,0.0276497695595026,0.036866359412670135,0.018433179706335068,0.004608294926583767,0.018433179706335068,0.018433179706335068,0.0,0.0,0.018433179706335068,0.032258063554763794,0.018433179706335068,0.0138248847797513,0.004608294926583767,0.032258063554763794,0.018433179706335068,0.0,0.004608294926583767,0.036866359412670135,0.0276497695595026,0.0,0.0138248847797513,0.02304147556424141,0.009216589853167532,0.0138248847797513,0.02304147556424141,0.0276497695595026,0.0276497695595026,0.009216589853167532,0.004608294926583767,0.036866359412670135,0.0276497695595026,0.0138248847797513,0.036866359412670135,0.05069124326109886,0.0276497695595026,0.0138248847797513,0.036866359412670135,0.04147465527057648,0.02304147556424141,0.0276497695595026,0.032258063554763794,0.07834101468324661,0.10138248652219772,0.07834101468324661,0.09216590225696564,0.10138248652219772,0.10138248652219772,0.07373271882534027,0.10138248652219772,0.10138248652219772,0.0875576063990593,0.04147465527057648,0.0276497695595026,0.032258063554763794,0.036866359412670135,0.036866359412670135,0.0552995391190052,0.07834101468324661,0.11520737409591673,0.3271889388561249,0.6635944843292236,0.9078341126441956,0.9723502397537231,0.9308755993843079,0.7327188849449157,0.539170503616333,0.3041474521160126,0.1105990782380104,0.05990783497691154,0.0875576063990593,0.0875576063990593,0.07373271882534027,0.0875576063990593,0.11981566995382308,0.10599078238010406,0.10599078238010406,0.11520737409591673,0.12903225421905515,0.12442396581172945,0.11981566995382308,0.13824884593486783,0.15668202936649323,0.1428571492433548,0.14746543765068054,0.15668202936649323,0.1797235012054443,0.18433180451393127,0.0,0.0,0.0,0.0,0.0,0.0,0.0,0.0,0.0,0.0,0.0,0.0,0.0,0.0,0.0,0.0,0.0,0.0,0.0,0.0,0.0,0.0,0.0,0.0,0.0,0.0,0.0,0.0,0.0,0.0,0.0,0.0,0.0,0.0,0.0,0.0,0.0,0.0,0.0,0.0,0.0,0.0,0.0,0.0
0.28930819034576416,0.37526205182075506,0.33542975783348083,0.4150943458080292,0.5639412999153137,0.6582809090614319,0.6750524044036865,0.6247379183769226,0.6226415038108826,0.6582809090614319,0.6771488189697266,0.6855345964431763,0.6750524044036865,0.6834381818771361,0.7064989805221558,0.6771488189697266,0.6876310110092163,0.6876310110092163,0.698113203048706,0.7295597195625305,0.7568134069442749,0.8071278929710387,0.8364779949188232,0.8532494902610778,0.8888888955116272,0.9329140186309814,0.9559748172760008,1.0,0.9811320900917053,0.9832285046577453,0.9580712914466858,0.947589099407196,0.8888888955116272,0.846960186958313,0.8176100850105285,0.8301886916160582,0.8092243075370787,0.6121593117713928,0.4171907901763916,0.29140460491180414,0.10901467502117156,0.01886792480945587,0.01467505283653736,0.0,0.050314463675022125,0.12368972599506378,0.31027254462242126,0.4297693967819214,0.5052410960197449,0.5555555820465088,0.6016771197319031,0.6268343925476073,0.6331236958503723,0.6373165845870972,0.6666666865348816,0.6918238997459412,0.7337526082992554,0.8008385896682739,0.8092243075370787,0.8679245114326477,0.0,0.0,0.0,0.0,0.0,0.0,0.0,0.0,0.0,0.0,0.0,0.0,0.0,0.0,0.0,0.0,0.0,0.0,0.0,0.0,0.0,0.0,0.0,0.0,0.0,0.0,0.0,0.0,0.0,0.0,0.0,0.0,0.0,0.0,0.0,0.0,0.0,0.0,0.0,0.0,0.0,0.0,0.0,0.0,0.0,0.0,0.0,0.0,0.0,0.0,0.0,0.0,0.0,0.0,0.0,0.0,0.0,0.0,0.0,0.0,0.0,0.0,0.0,0.0,0.0,0.0,0.0,0.0,0.0,0.0,0.0,0.0,0.0,0.0,0.0,0.0,0.0,0.0,0.0,0.0,0.0,0.0,0.0,0.0,0.0,0.0,0.0,0.0,0.0,0.0,0.0,0.0,0.0,0.0,0.0,0.0,0.0,0.0,0.0,0.0,0.0,0.0,0.0,0.0,0.0,0.0,0.0,0.0,0.0,0.0,0.0,0.0,0.0,0.0,0.0,0.0,0.0,0.0,0.0,0.0,0.0,0.0,0.0,0.0,0.0,0.0,0.0,2.0
1.0,0.9576470851898192,0.7129411697387695,0.2635294198989868,0.14588235318660736,0.21411764621734616,0.14352941513061523,0.0941176488995552,0.08941176533699036,0.08705881983041763,0.08705881983041763,0.08941176533699036,0.08941176533699036,0.10117647051811218,0.07999999821186066,0.0941176488995552,0.09647058695554733,0.09647058695554733,0.07999999821186066,0.09176470339298248,0.0941176488995552,0.10117647051811218,0.08941176533699036,0.1035294085741043,0.10117647051811218,0.10117647051811218,0.0941176488995552,0.11058823764324188,0.12470588088035583,0.1341176480054855,0.12470588088035583,0.15529412031173706,0.15529412031173706,0.16470588743686676,0.16470588743686676,0.1764705926179886,0.1788235306739807,0.169411763548851,0.16470588743686676,0.14588235318660736,0.1670588254928589,0.16470588743686676,0.14352941513061523,0.1341176480054855,0.1388235241174698,0.1341176480054855,0.11529412120580672,0.1223529428243637,0.12705881893634796,0.1223529428243637,0.112941175699234,0.11764705926179884,0.12470588088035583,0.12470588088035583,0.11764705926179884,0.11999999731779099,0.12470588088035583,0.12941177189350128,0.11999999731779099,0.12470588088035583,0.13647058606147766,0.12941177189350128,0.11764705926179884,0.1341176480054855,0.12705881893634796,0.13647058606147766,0.1317647099494934,0.1411764770746231,0.1505882292985916,0.1576470583677292,0.169411763548851,0.20000000298023224,0.2329411804676056,0.23764705657958984,0.22117647528648376,0.21411764621734616,0.21882352232933044,0.2070588171482086,0.1952941119670868,0.1482352912425995,0.14352941513061523,0.12470588088035583,0.11058823764324188,0.09647058695554733,0.112941175699234,0.10588235408067705,0.0941176488995552,0.0752941146492958,0.030588235706090927,0.0,0.1317647099494934,0.4000000059604645,0.6611764430999756,0.8611764907836914,0.9505882263183592,0.8917647004127502,0.6870588064193726,0.2635294198989868,0.112941175699234,0.1788235306739807,0.1388235241174698,0.07294117659330368,0.03999999910593033,0.04470588266849518,0.03999999910593033,0.05176470428705216,0.0376470573246479,0.04235294088721275,0.04470588266849518,0.05647058784961701,0.0376470573246479,0.03999999910593033,0.03529411926865578,0.0,0.0,0.0,0.0,0.0,0.0,0.0,0.0,0.0,0.0,0.0,0.0,0.0,0.0,0.0,0.0,0.0,0.0,0.0,0.0,0.0,0.0,0.0,0.0,0.0,0.0,0.0,0.0,0.0,0.0,0.0,0.0,0.0,0.0,0.0,0.0,0.0,0.0,0.0,0.0,0.0,0.0,0.0,0.0,0.0,0.0,0.0,0.0,0.0,0.0,0.0,0.0,0.0,0.0,0.0,0.0,0.0,0.0,0.0,0.0,0.0,0.0,0.0,0.0,0.0,0.0,0.0,0.0,0.0,0.0,0.0,0.0,0.0,0.0,0.0
